1551115282.00
64.000000
-0.00
-0.00
-0.00
-0.00
-0.00
-0.00
-0.00
-0.00
-0.00
-0.00
0.00
0.01
0.01
-0.00
-0.03
-0.05
-0.05
0.00
0.13
0.36
0.66
1.01
1.37
1.72
2.06
2.40
2.79
3.24
3.80
4.42
5.06
5.66
6.20
6.68
7.15
7.68
8.31
9.14
10.09
11.04
11.88
12.56
13.14
13.76
14.65
15.96
17.91
20.32
22.90
25.38
27.58
29.57
31.68
34.32
37.81
42.54
48.15
54.10
59.83
64.97
69.58
74.14
79.34
85.71
93.76
103.00
112.62
121.73
129.77
136.75
143.30
150.75
157.77
166.64
177.95
191.79
206.97
220.57
228.25
225.36
208.53
176.87
132.76
80.05
23.07
-34.94
-92.44
-149.16
-205.23
-260.37
-313.74
-363.87
-409.83
-450.91
-486.50
-515.74
-537.23
-549.22
-549.96
-538.37
-514.21
-478.67
-433.88
-382.45
-327.02
-269.84
-212.63
-156.66
-102.95
-52.37
-5.91
35.58
71.42
101.35
125.50
144.38
158.70
169.17
176.40
180.79
182.64
182.16
179.62
175.39
169.85
163.42
156.44
149.15
141.70
134.15
126.53
118.91
111.33
103.86
96.57
89.52
82.74
76.24
70.04
64.14
58.54
53.27
48.33
43.72
39.45
35.50
31.88
28.57
25.56
22.87
20.47
18.38
16.58
15.06
13.82
12.84
12.11
11.61
11.32
11.23
11.32
11.58
11.99
12.54
13.21
14.00
14.89
15.88
16.96
18.14
19.41
20.78
22.23
23.76
25.32
26.85
28.28
29.50
30.36
30.73
30.47
29.46
27.61
24.91
21.40
17.12
12.25
7.00
1.60
-3.70
-8.65
-13.05
-16.72
-19.56
-21.52
-22.60
-22.87
-22.44
-21.43
-19.96
-18.17
-16.17
-14.04
-11.83
-9.57
-7.30
-5.05
-2.82
-0.61
1.60
3.83
6.12
8.51
11.05
13.70
16.45
19.29
22.24
25.31
28.51
31.89
35.47
39.34
43.39
47.55
51.78
56.11
60.53
65.09
69.85
74.90
80.37
86.08
91.94
97.87
103.89
109.97
116.14
122.41
128.82
135.43
141.87
147.84
153.10
157.40
160.44
161.79
160.84
156.62
150.88
144.13
136.70
128.80
120.63
112.35
104.16
96.20
88.61
81.52
74.64
67.80
60.96
54.17
47.58
41.34
35.56
30.24
25.32
20.37
15.08
9.35
3.31
-2.78
-8.62
-14.04
-19.12
-24.15
-29.73
-36.32
-44.03
-52.58
-61.45
-70.04
-78.06
-85.62
-93.27
-101.83
-111.94
-123.75
-136.83
-150.42
-163.68
-176.14
-187.82
-199.28
-211.38
-225.19
-241.78
-261.97
-285.79
-311.85
-337.08
-357.16
-367.81
-366.28
-352.54
-329.28
-300.79
-271.29
-243.55
-218.54
-195.89
-175.00
-155.70
-138.31
-123.29
-110.65
-99.83
-89.94
-80.18
-70.19
-60.13
-50.57
-42.17
-35.39
-30.33
-26.76
-24.21
-22.21
-20.49
-18.98
-17.72
-16.62
-15.37
-13.35
-9.93
-4.67
2.40
10.77
19.65
28.17
35.70
41.97
47.00
50.98
54.12
56.59
58.50
59.98
61.16
62.26
63.44
64.80
66.31
67.75
68.94
69.68
69.93
69.75
69.27
68.56
67.59
66.21
64.25
61.67
58.56
55.17
51.83
48.73
45.89
43.13
40.23
37.03
33.55
29.98
26.54
23.44
20.71
18.22
15.77
13.16
10.29
7.18
3.92
0.58
-2.81
-6.29
-10.00
-14.06
-18.58
-23.59
-28.94
-34.29
-39.08
-42.57
-43.99
-42.80
-38.77
-32.20
-23.79
-14.47
-5.18
3.40
10.82
16.96
21.89
25.77
28.81
31.11
32.74
33.64
33.74
33.02
31.57
29.60
27.38
25.22
23.32
21.84
20.84
20.27
20.04
19.97
19.86
19.53
18.89
17.99
16.99
16.12
15.56
15.39
15.57
15.97
16.44
16.79
16.93
16.77
16.29
15.48
14.39
13.02
11.40
9.54
7.45
5.20
2.82
0.29
-2.52
-5.82
-9.87
-14.81
-20.55
-26.72
-32.71
-37.79
-41.24
-42.48
-41.19
-37.38
-31.40
-23.90
-15.65
-7.41
0.25
7.00
12.78
17.61
21.54
24.59
26.77
28.08
28.66
28.70
28.47
28.26
28.28
28.64
29.30
30.15
31.05
31.90
32.66
33.32
33.82
34.00
33.65
32.58
30.70
28.11
25.03
21.73
18.43
15.30
12.47
10.07
8.22
6.90
5.96
5.06
3.82
1.97
-0.56
-3.66
-7.14
-10.87
-14.84
-19.11
-23.75
-28.78
-34.12
-39.67
-45.23
-50.48
-54.91
-57.84
-58.53
-56.46
-51.50
-44.03
-34.82
-24.84
-15.05
-6.11
1.62
8.07
13.41
17.91
21.84
25.35
28.45
31.02
32.91
34.00
34.35
34.16
33.71
33.25
32.94
32.83
32.90
33.07
33.29
33.46
33.50
33.32
32.84
32.06
31.01
29.73
28.28
26.67
24.96
23.19
21.46
19.81
18.27
16.78
15.19
13.30
10.99
8.16
4.83
1.12
-2.78
-6.66
-10.38
-13.94
-17.49
-21.27
-25.56
-30.54
-36.16
-42.13
-47.87
-52.62
-55.52
-55.86
-53.23
-47.69
-39.75
-30.30
-20.37
-10.92
-2.56
4.44
10.13
14.77
18.60
21.82
24.48
26.54
27.92
28.60
28.64
28.26
27.66
27.07
26.61
26.32
26.17
26.10
26.07
26.01
25.79
25.31
24.48
23.27
21.72
19.86
17.74
15.43
13.03
10.65
8.39
6.30
4.27
2.08
-0.47
-3.51
-6.97
-10.65
-14.27
-17.62
-20.59
-23.21
-25.60
-27.98
-30.60
-33.72
-37.48
-41.87
-46.62
-51.20
-54.85
-56.73
-56.12
-52.52
-45.93
-36.80
-26.00
-14.62
-3.68
6.03
14.17
20.74
25.99
30.17
33.46
35.85
37.29
37.74
37.28
36.11
34.53
32.85
31.30
29.99
28.93
28.13
27.57
27.27
27.23
27.38
27.55
27.50
26.99
25.93
24.40
22.57
20.62
18.68
16.73
14.68
12.51
10.25
7.99
5.76
3.48
0.95
-2.04
-5.53
-9.38
-13.30
-16.99
-20.33
-23.43
-26.60
-30.22
-34.47
-39.23
-43.96
-47.80
-49.83
-49.32
-46.04
-40.24
-32.65
-24.16
-15.57
-7.45
-0.15
6.16
11.38
15.46
18.44
20.53
22.02
23.19
24.15
24.83
25.02
24.57
23.46
21.89
20.16
18.58
17.37
16.62
16.33
16.47
16.95
17.59
18.12
18.20
17.61
16.29
14.41
12.22
9.97
7.81
5.79
3.92
2.21
0.70
-0.58
-1.72
-2.93
-4.41
-6.32
-8.66
-11.26
-13.86
-16.34
-18.69
-21.11
-23.86
-27.09
-30.75
-34.50
-37.81
-40.02
-40.52
-38.89
-35.04
-29.24
-22.09
-14.44
-7.17
-0.91
4.02
7.66
10.30
12.29
13.88
15.21
16.25
17.00
17.48
17.77
17.96
18.13
18.29
18.45
18.56
18.62
18.63
18.64
18.71
18.83
18.97
18.99
18.73
18.08
17.01
15.55
13.78
11.83
9.78
7.75
5.80
3.97
2.22
0.43
-1.56
-3.82
-6.28
-8.78
-11.10
-13.15
-14.99
-16.88
-19.09
-21.80
-25.06
-28.68
-32.30
-35.41
-37.42
-37.73
-35.90
-31.80
-25.75
-18.41
-10.63
-3.19
3.42
8.99
13.51
17.06
19.63
21.24
21.91
21.82
21.17
20.19
19.03
17.81
16.59
15.49
14.64
14.15
14.03
14.21
14.55
14.91
15.23
15.41
15.34
14.85
13.77
12.08
9.88
7.47
5.15
3.12
1.36
-0.26
-2.00
-4.03
-6.39
-8.96
-11.58
-14.06
-16.29
-18.34
-20.33
-22.48
-24.98
-27.91
-31.25
-34.76
-38.03
-40.54
-41.68
-40.94
-38.02
-32.99
-26.32
-18.74
-11.06
-3.98
2.09
6.98
10.72
13.50
15.50
16.96
18.08
18.98
19.72
20.27
20.54
20.51
20.26
19.98
19.86
20.01
20.38
20.82
21.17
21.32
21.28
21.08
20.69
19.99
18.84
17.14
14.97
12.53
10.13
7.92
5.95
4.04
2.00
-0.34
-3.01
-5.93
-8.96
-11.98
-14.90
-17.66
-20.18
-22.49
-24.68
-27.00
-29.73
-33.02
-36.68
-40.20
-42.83
-43.81
-42.62
-39.12
-33.51
-26.31
-18.19
-9.89
-2.15
4.49
9.72
13.50
16.10
17.89
19.23
20.30
21.20
21.86
22.31
22.52
22.58
22.52
22.38
22.22
22.08
21.99
21.95
21.94
21.87
21.63
21.14
20.30
19.08
17.49
15.62
13.63
11.68
9.87
8.16
6.37
4.25
1.62
-1.54
-5.08
-8.71
-12.09
-15.01
-17.45
-19.59
-21.79
-24.45
-27.88
-32.07
-36.72
-41.24
-44.82
-46.70
-46.31
-43.44
-38.26
-31.26
-23.17
-14.77
-6.74
0.47
6.63
11.75
15.93
19.30
21.92
23.83
25.05
25.58
25.49
24.88
23.88
22.70
21.53
20.58
19.98
19.73
19.73
19.79
19.73
19.39
18.75
17.80
16.60
15.13
13.41
11.43
9.28
7.13
5.13
3.36
1.74
0.06
-1.96
-4.52
-7.60
-10.98
-14.30
-17.26
-19.74
-21.86
-23.93
-26.31
-29.30
-33.03
-37.36
-41.95
-46.24
-49.49
-51.03
-50.28
-46.97
-41.24
-33.61
-24.87
-15.91
-7.52
-0.22
5.82
10.69
14.63
17.86
20.43
22.32
23.53
24.12
24.31
24.36
24.44
24.58
24.71
24.76
24.77
24.83
25.07
25.46
25.85
25.99
25.66
24.81
23.50
21.85
19.96
17.90
15.77
13.67
11.71
9.91
8.17
6.23
3.86
0.91
-2.57
-6.35
-10.12
-13.64
-16.75
-19.47
-21.93
-24.33
-26.96
-30.03
-33.70
-37.89
-42.34
-46.53
-49.87
-51.73
-51.61
-49.21
-44.45
-37.56
-29.07
-19.76
-10.52
-2.13
4.92
10.53
14.89
18.38
21.27
23.66
25.51
26.73
27.34
27.50
27.43
27.35
27.36
27.46
27.59
27.69
27.78
27.86
27.98
28.06
27.98
27.59
26.76
25.44
23.67
21.58
19.30
16.95
14.57
12.19
9.76
7.25
4.63
1.89
-0.98
-3.96
-6.99
-10.01
-12.91
-15.63
-18.09
-20.33
-22.47
-24.71
-27.29
-30.43
-34.15
-38.26
-42.31
-45.69
-47.68
-47.62
-45.09
-40.04
-32.89
-24.46
-15.72
-7.62
-0.74
4.82
9.32
13.18
16.70
19.95
22.74
24.83
26.06
26.48
26.32
25.88
25.44
25.16
25.10
25.23
25.46
25.72
25.93
26.05
26.05
25.90
25.53
24.86
23.85
22.48
20.87
19.15
17.43
15.68
13.80
11.69
9.32
6.83
4.41
2.27
0.43
-1.23
-2.96
-5.00
-7.44
-10.23
-13.24
-16.34
-19.45
-22.64
-26.04
-29.82
-34.08
-38.72
-43.43
-47.61
-50.53
-51.48
-50.03
-46.07
-39.95
-32.25
-23.69
-14.97
-6.69
0.76
7.14
12.41
16.65
20.00
22.62
24.64
26.07
26.93
27.16
26.76
25.86
24.70
23.61
22.91
22.82
23.33
24.28
25.31
26.11
26.50
26.48
26.16
25.66
25.00
24.07
22.72
20.83
18.42
15.66
12.72
9.76
6.85
3.99
1.14
-1.71
-4.54
-7.31
-9.98
-12.58
-15.12
-17.61
-20.07
-22.49
-24.95
-27.60
-30.58
-34.00
-37.84
-41.85
-45.64
-48.64
-50.23
-49.82
-47.03
-41.81
-34.49
-25.86
-16.82
-8.26
-0.73
5.59
10.83
15.19
18.81
21.67
23.74
25.04
25.72
26.01
26.04
25.88
25.51
24.91
24.23
23.71
23.57
23.90
24.55
25.21
25.55
25.36
24.61
23.37
21.77
19.91
17.85
15.66
13.44
11.27
9.21
7.29
5.42
3.52
1.49
-0.72
-3.13
-5.73
-8.46
-11.19
-13.77
-16.01
-17.84
-19.35
-20.82
-22.61
-25.08
-28.40
-32.52
-37.03
-41.37
-44.78
-46.57
-46.17
-43.29
-37.99
-30.69
-22.12
-13.16
-4.68
2.70
8.67
13.22
16.60
19.17
21.23
22.96
24.38
25.42
25.99
26.07
25.72
25.09
24.34
23.62
23.05
22.67
22.51
22.53
22.65
22.75
22.70
22.38
21.68
20.55
18.96
16.98
14.71
12.35
10.04
7.94
6.07
4.35
2.66
0.83
-1.23
-3.52
-6.01
-8.65
-11.40
-14.26
-17.15
-19.96
-22.55
-24.84
-26.91
-29.06
-31.67
-34.94
-38.81
-42.72
-45.81
-47.18
-46.18
-42.69
-37.04
-29.96
-22.21
-14.46
-7.18
-0.61
5.13
9.93
13.74
16.52
18.36
19.44
19.98
20.19
20.17
19.96
19.58
19.05
18.52
18.13
18.03
18.19
18.54
18.87
19.04
18.96
18.56
17.79
16.62
15.03
13.09
10.99
8.93
7.05
5.37
3.82
2.28
0.62
-1.22
-3.29
-5.56
-7.99
-10.47
-12.85
-14.99
-16.88
-18.65
-20.64
-23.13
-26.23
-29.72
-33.05
-35.48
-36.32
-35.13
-31.80
-26.54
-19.83
-12.31
-4.65
2.56
8.86
14.02
17.98
20.81
22.62
23.52
23.66
23.22
22.48
21.73
21.23
21.04
21.13
21.33
21.53
21.71
21.94
22.28
22.70
23.03
22.98
22.33
20.94
18.93
16.56
14.17
12.03
10.28
8.90
7.80
6.82
5.83
4.66
3.20
1.37
-0.76
-3.05
-5.32
-7.53
-9.83
-12.57
-16.08
-20.45
-25.39
-30.21
-34.04
-36.07
-35.81
-33.17
-28.42
-22.11
-14.86
-7.30
-0.02
6.55
12.14
16.64
20.11
22.66
24.38
25.38
25.71
25.48
24.85
24.04
23.29
22.79
22.62
22.77
23.12
23.51
23.79
23.90
23.82
23.57
23.17
22.55
21.62
20.28
18.49
16.35
14.00
11.55
9.05
6.40
3.51
0.34
-3.02
-6.39
-9.57
-12.48
-15.14
-17.72
-20.42
-23.52
-27.22
-31.58
-36.48
-41.49
-45.94
-48.97
-49.78
-47.86
-43.15
-36.08
-27.45
-18.21
-9.25
-1.20
5.61
11.13
15.52
18.97
21.62
23.52
24.61
24.83
24.26
23.14
21.84
20.73
20.03
19.70
19.60
19.51
19.43
19.46
19.81
20.56
21.54
22.37
22.56
21.77
19.90
17.19
14.03
10.84
7.85
5.11
2.43
-0.40
-3.48
-6.76
-10.06
-13.16
-15.96
-18.58
-21.33
-24.62
-28.76
-33.81
-39.53
-45.39
-50.64
-54.50
-56.28
-55.50
-51.98
-45.95
-37.97
-28.90
-19.62
-10.90
-3.22
3.30
8.78
13.41
17.30
20.43
22.73
24.17
24.84
24.91
24.60
24.06
23.38
22.65
22.01
21.64
21.69
22.19
23.00
23.85
24.41
24.46
23.89
22.71
20.95
18.70
16.05
13.04
9.78
6.31
2.68
-1.09
-4.99
-8.97
-12.94
-16.79
-20.45
-23.91
-27.29
-30.82
-34.78
-39.41
-44.69
-50.35
-55.75
-60.01
-62.21
-61.67
-58.12
-51.81
-43.45
-33.96
-24.30
-15.24
-7.25
-0.47
5.19
9.90
13.82
17.00
19.43
21.04
21.82
21.82
21.16
20.06
18.73
17.37
16.16
15.22
14.62
14.38
14.54
15.06
15.83
16.66
17.27
17.32
16.60
15.05
12.86
10.33
7.74
5.26
2.82
0.27
-2.57
-5.80
-9.36
-13.07
-16.67
-19.92
-22.70
-25.05
-27.21
-29.62
-32.70
-36.76
-41.77
-47.27
-52.44
-56.28
-57.86
-56.59
-52.34
-45.41
-36.52
-26.52
-16.30
-6.60
2.05
9.42
15.48
20.35
24.20
27.15
29.29
30.65
31.33
31.46
31.21
30.77
30.30
29.92
29.70
29.68
29.81
30.03
30.24
30.35
30.32
30.05
29.43
28.26
26.39
23.75
20.49
16.93
13.47
10.42
7.86
5.61
3.36
0.79
-2.24
-5.69
-9.36
-13.02
-16.48
-19.67
-22.64
-25.56
-28.67
-32.26
-36.53
-41.48
-46.83
-51.94
-55.90
-57.75
-56.77
-52.65
-45.64
-36.46
-26.12
-15.66
-5.93
2.51
9.47
15.03
19.44
22.90
25.59
27.56
28.84
29.43
29.43
28.96
28.16
27.21
26.24
25.42
24.89
24.79
25.12
25.76
26.37
26.60
26.14
24.90
22.99
20.62
18.01
15.29
12.52
9.79
7.18
4.82
2.70
0.66
-1.60
-4.34
-7.70
-11.50
-15.40
-18.98
-21.94
-24.31
-26.37
-28.68
-31.82
-36.19
-41.78
-48.08
-54.19
-58.97
-61.42
-60.84
-57.01
-50.25
-41.21
-30.84
-20.13
-9.98
-1.00
6.52
12.57
17.33
21.01
23.71
25.45
26.28
26.32
25.86
25.23
24.71
24.45
24.41
24.49
24.55
24.58
24.65
24.85
25.20
25.56
25.72
25.39
24.38
22.65
20.30
17.58
14.75
12.02
9.50
7.15
4.83
2.36
-0.43
-3.65
-7.26
-11.09
-14.83
-18.23
-21.14
-23.62
-25.99
-28.65
-31.97
-36.12
-40.95
-46.01
-50.60
-53.86
-54.97
-53.31
-48.68
-41.37
-32.17
-22.14
-12.36
-3.65
3.64
9.48
14.11
17.77
20.64
22.75
24.07
24.57
24.33
23.49
22.28
20.96
19.79
18.99
18.69
18.90
19.52
20.34
21.09
21.52
21.39
20.56
19.01
16.83
14.22
11.38
8.47
5.53
2.47
-0.81
-4.36
-8.09
-11.81
-15.26
-18.28
-20.92
-23.45
-26.28
-29.81
-34.18
-39.21
-44.34
-48.69
-51.27
-51.23
-48.11
-41.92
-33.25
-23.09
-12.55
-2.68
5.84
12.73
18.05
22.00
24.80
26.62
27.60
27.87
27.69
27.35
27.06
26.87
26.74
26.53
26.19
25.79
25.52
25.53
25.79
26.08
26.06
25.41
23.93
21.66
18.80
15.64
12.47
9.50
6.80
4.26
1.75
-0.90
-3.81
-7.01
-10.45
-14.02
-17.63
-21.25
-25.00
-29.07
-33.73
-39.18
-45.40
-52.06
-58.37
-63.31
-65.75
-64.87
-60.36
-52.63
-42.64
-31.67
-21.00
-11.56
-3.87
1.97
6.13
8.95
10.78
12.03
13.12
14.50
16.59
19.64
23.66
28.35
33.16
37.44
40.68
42.63
43.40
43.31
42.79
42.17
41.58
40.91
39.98
38.60
36.70
34.35
31.70
28.91
26.10
23.30
20.45
17.45
14.32
11.11
7.96
4.99
2.23
-0.42
-3.17
-6.28
-9.93
-14.24
-19.17
-24.56
-30.07
-35.16
-39.09
-41.04
-40.31
-36.62
-30.27
-22.12
-13.29
-4.79
2.76
9.22
14.80
19.71
24.04
27.67
30.41
32.17
33.07
33.30
33.05
32.36
31.18
29.40
27.10
24.54
22.13
20.23
19.04
18.46
18.18
17.77
16.87
15.25
12.91
10.04
6.93
3.86
1.01
-1.56
-3.82
-5.81
-7.61
-9.30
-11.03
-12.89
-14.87
-16.87
-18.68
-20.24
-21.69
-23.40
-25.83
-29.28
-33.55
-37.93
-41.31
-42.56
-40.93
-36.21
-28.77
-19.38
-8.99
1.46
11.20
19.74
26.89
32.68
37.27
40.78
43.24
44.60
44.78
43.82
41.95
39.55
37.01
34.66
32.72
31.32
30.56
30.49
31.08
32.14
33.25
33.89
33.58
32.01
29.10
25.04
20.19
14.95
9.66
4.56
-0.27
-4.86
-9.31
-13.72
-18.09
-22.37
-26.46
-30.26
-33.80
-37.24
-40.88
-45.06
-50.03
-55.74
-61.84
-67.57
-71.97
-74.01
-72.93
-68.39
-60.67
-50.57
-39.25
-27.88
-17.41
-8.35
-0.84
5.30
10.32
14.44
17.76
20.29
22.06
23.13
23.59
23.58
23.24
22.71
22.13
21.65
21.35
21.30
21.45
21.70
21.87
21.78
21.29
20.34
18.91
17.02
14.64
11.77
8.41
4.60
0.49
-3.75
-7.88
-11.73
-15.24
-18.51
-21.79
-25.43
-29.72
-34.78
-40.37
-45.90
-50.49
-53.15
-53.04
-49.71
-43.25
-34.31
-23.96
-13.42
-3.76
4.36
10.73
15.57
19.28
22.22
24.59
26.40
27.59
28.11
28.02
27.47
26.61
25.61
24.58
23.68
23.09
22.91
23.17
23.69
24.14
24.13
23.33
21.57
18.94
15.68
12.14
8.61
5.20
1.90
-1.41
-4.85
-8.44
-12.14
-15.75
-19.12
-22.13
-24.83
-27.42
-30.25
-33.66
-37.88
-42.83
-48.05
-52.63
-55.51
-55.68
-52.53
-46.10
-37.03
-26.43
-15.51
-5.29
3.58
10.88
16.70
21.29
24.87
27.54
29.34
30.25
30.28
29.54
28.20
26.52
24.74
23.13
21.91
21.22
21.10
21.41
21.87
22.18
22.03
21.23
19.78
17.77
15.37
12.74
10.02
7.25
4.39
1.39
-1.84
-5.34
-9.01
-12.75
-16.39
-19.83
-23.11
-26.47
-30.21
-34.59
-39.64
-45.02
-50.05
-53.77
-55.18
-53.59
-48.79
-41.12
-31.38
-20.67
-10.00
-0.18
8.34
15.43
21.27
26.07
30.04
33.25
35.59
36.93
37.20
36.50
35.14
33.55
32.13
31.14
30.67
30.59
30.73
30.85
30.76
30.32
29.48
28.19
26.47
24.29
21.65
18.53
15.02
11.29
7.63
4.33
1.53
-0.84
-2.97
-5.17
-7.60
-10.26
-13.04
-15.76
-18.35
-20.87
-23.47
-26.39
-29.83
-33.98
-38.91
-44.50
-50.35
-55.79
-59.86
-61.57
-60.21
-55.47
-47.66
-37.55
-26.23
-14.86
-4.37
4.65
11.97
17.72
22.16
25.58
28.19
30.09
31.34
32.02
32.25
32.14
31.78
31.20
30.42
29.48
28.51
27.69
27.14
26.93
26.98
27.16
27.29
27.26
26.94
26.25
25.12
23.55
21.59
19.39
17.10
14.84
12.60
10.30
7.77
4.96
1.89
-1.36
-4.66
-7.95
-11.21
-14.47
-17.72
-20.91
-23.94
-26.78
-29.45
-32.15
-35.14
-38.71
-43.02
-47.92
-52.92
-57.15
-59.56
-59.22
-55.56
-48.66
-39.28
-28.54
-17.68
-7.64
1.08
8.38
14.40
19.31
23.23
26.26
28.47
30.00
30.94
31.34
31.19
30.47
29.27
27.79
26.30
25.08
24.35
24.23
24.71
25.67
26.91
28.11
28.91
29.02
28.30
26.80
24.76
22.43
19.99
17.47
14.82
11.99
9.10
6.35
4.01
2.16
0.67
-0.79
-2.63
-5.15
-8.46
-12.44
-16.82
-21.33
-25.71
-29.77
-33.40
-36.60
-39.48
-42.32
-45.42
-48.93
-52.72
-56.22
-58.56
-58.73
-55.99
-50.09
-41.41
-30.86
-19.62
-8.82
0.70
8.52
14.62
19.19
22.56
25.06
26.93
28.35
29.39
30.09
30.41
30.35
29.93
29.20
28.29
27.35
26.51
25.90
25.55
25.42
25.37
25.26
24.92
24.30
23.40
22.29
20.96
19.33
17.24
14.59
11.46
8.15
5.08
2.59
0.77
-0.59
-1.87
-3.47
-5.59
-8.25
-11.31
-14.63
-18.08
-21.58
-25.01
-28.21
-31.12
-33.76
-36.43
-39.50
-43.32
-47.84
-52.56
-56.50
-58.54
-57.76
-53.72
-46.70
-37.47
-27.10
-16.61
-6.75
1.98
9.35
15.28
19.82
23.11
25.34
26.72
27.40
27.48
27.03
26.16
25.03
23.87
22.89
22.19
21.79
21.62
21.64
21.81
22.08
22.37
22.43
22.00
20.82
18.79
16.06
12.98
10.02
7.51
5.61
4.15
2.75
1.02
-1.18
-3.78
-6.36
-8.48
-9.85
-10.49
-10.81
-11.42
-12.96
-15.83
-20.07
-25.25
-30.49
-34.74
-36.84
-35.93
-31.62
-24.16
-14.38
-3.52
7.12
16.56
24.27
30.23
34.74
38.25
41.12
43.56
45.65
47.36
48.69
49.67
50.40
51.02
51.66
52.49
53.55
54.76
55.89
56.57
56.50
55.54
53.83
51.67
49.39
47.12
44.70
41.81
38.18
33.83
29.01
24.11
19.41
14.92
10.38
5.50
0.10
-5.74
-11.82
-17.88
-23.77
-29.36
-34.58
-39.30
-43.42
-47.00
-50.34
-53.92
-58.17
-63.21
-68.53
-73.13
-75.65
-74.87
-70.15
-61.66
-50.31
-37.53
-24.72
-12.96
-2.79
5.77
12.98
19.16
24.59
29.38
33.55
37.00
39.55
40.95
41.01
39.68
37.14
33.81
30.29
27.20
25.02
24.03
24.24
25.41
27.09
28.64
29.40
28.82
26.56
22.59
17.23
10.93
4.22
-2.48
-8.81
-14.49
-19.26
-22.93
-25.44
-26.86
-27.49
-27.65
-27.66
-27.68
-27.79
-28.00
-28.44
-29.38
-31.25
-34.52
-39.65
-46.92
-56.26
-67.17
-78.45
-88.37
-94.90
-96.33
-91.82
-81.74
-67.60
-51.56
-35.76
-21.76
-10.33
-1.54
4.98
9.69
13.07
15.53
17.47
19.12
20.58
21.72
22.26
22.01
20.87
19.05
16.94
15.06
13.84
13.52
14.07
15.19
16.49
17.48
17.86
17.54
16.64
15.41
14.14
12.87
11.49
9.62
6.93
3.13
-1.71
-7.29
-13.09
-18.54
-23.18
-26.80
-29.47
-31.51
-33.45
-35.88
-39.24
-43.53
-48.14
-51.84
-53.15
-50.82
-44.32
-34.17
-21.73
-8.71
3.33
13.51
21.61
27.91
32.78
36.51
39.19
40.80
41.42
41.23
40.40
39.02
37.00
34.20
30.56
26.32
22.05
18.49
16.29
15.72
16.54
18.15
19.70
20.48
20.00
18.14
15.08
11.19
6.95
2.75
-1.15
-4.70
-8.02
-11.32
-14.78
-18.47
-22.25
-25.90
-29.19
-32.07
-34.71
-37.64
-41.54
-47.12
-54.74
-64.14
-74.20
-82.99
-88.14
-87.57
-80.10
-66.03
-47.14
-26.15
-5.86
11.58
25.14
34.81
41.20
45.08
47.06
47.50
46.66
44.78
42.13
38.99
35.63
32.33
29.35
27.01
25.54
25.04
25.43
26.35
27.35
27.97
27.83
26.80
24.94
22.44
19.50
16.24
12.62
8.55
3.93
-1.21
-6.70
-12.22
-17.40
-21.96
-25.80
-29.14
-32.42
-36.27
-41.28
-47.64
-54.88
-61.72
-66.28
-66.58
-61.20
-49.84
-33.56
-14.42
5.13
22.91
37.55
48.56
56.09
60.65
62.76
62.90
61.55
59.17
56.27
53.24
50.37
47.73
45.27
42.91
40.58
38.27
35.96
33.56
30.89
27.67
23.66
18.78
13.12
6.93
0.53
-5.87
-12.14
-18.32
-24.40
-30.29
-35.74
-40.40
-43.95
-46.24
-47.37
-47.64
-47.65
-48.11
-49.79
-53.43
-59.44
-67.61
-76.85
-85.06
-89.57
-87.82
-78.33
-61.42
-39.22
-15.12
7.43
25.94
39.50
48.57
54.45
58.34
60.96
62.48
62.77
61.80
59.76
57.07
54.14
51.27
48.60
46.21
44.09
42.27
40.74
39.43
38.20
36.86
35.20
33.01
30.15
26.51
22.02
16.71
10.69
4.20
-2.40
-8.82
-14.82
-20.28
-25.22
-29.76
-34.21
-39.04
-44.84
-52.12
-60.98
-70.77
-79.96
-86.28
-87.40
-81.68
-68.89
-50.35
-28.60
-6.66
12.85
28.26
39.09
45.71
49.01
49.89
49.05
46.95
43.80
39.80
35.19
30.35
25.78
21.89
18.96
17.01
15.83
15.11
14.56
14.01
13.44
12.88
12.26
11.35
9.81
7.21
3.29
-1.99
-8.31
-15.14
-21.81
-27.75
-32.69
-36.67
-40.07
-43.41
-47.32
-52.33
-58.76
-66.41
-74.44
-81.20
-84.48
-82.14
-72.90
-56.96
-36.22
-13.68
7.47
24.88
37.57
45.89
50.92
53.82
55.33
55.76
55.17
53.66
51.46
48.83
45.99
42.98
39.80
36.46
33.12
30.13
27.88
26.65
26.44
26.92
27.45
27.25
25.68
22.43
17.75
12.33
7.05
2.60
-0.87
-3.78
-6.91
-10.97
-16.24
-22.40
-28.75
-34.55
-39.35
-43.22
-46.71
-50.64
-55.88
-63.04
-72.20
-82.47
-91.97
-98.08
-98.20
-90.65
-75.46
-54.50
-30.96
-8.16
11.36
26.46
37.25
44.55
49.25
52.05
53.45
53.89
53.82
53.65
53.52
53.24
52.42
50.65
47.81
44.17
40.42
37.30
35.48
35.19
36.07
37.31
37.85
36.78
33.70
28.88
23.06
17.16
11.86
7.29
3.17
-1.08
-5.92
-11.52
-17.61
-23.71
-29.30
-34.02
-37.86
-41.12
-44.36
-48.28
-53.59
-60.78
-69.95
-80.41
-90.64
-98.30
-100.85
-96.31
-84.11
-65.41
-42.93
-20.07
0.18
15.99
26.96
33.82
37.72
39.77
40.75
41.07
40.95
40.61
40.20
39.76
39.20
38.33
36.89
34.82
32.24
29.50
27.06
25.23
24.06
23.24
22.19
20.27
17.07
12.57
7.18
1.61
-3.45
-7.54
-10.59
-12.95
-15.27
-18.17
-22.07
-27.00
-32.59
-38.22
-43.36
-47.70
-51.43
-55.14
-59.63
-65.70
-73.77
-83.64
-94.33
-104.05
-110.44
-111.18
-104.68
-90.74
-70.77
-47.47
-23.96
-2.91
14.17
27.04
36.37
43.09
48.04
51.62
54.04
55.41
55.93
55.85
55.29
54.29
52.74
50.63
48.10
45.51
43.34
42.02
41.69
42.15
42.83
43.01
42.14
39.92
36.57
32.59
28.62
25.07
21.96
18.91
15.39
11.06
5.90
0.35
-5.02
-9.73
-13.63
-16.95
-20.22
-24.12
-29.24
-35.85
-43.63
-51.62
-58.23
-61.65
-60.34
-53.65
-42.11
-27.24
-11.16
4.12
17.14
27.21
34.33
38.92
41.54
42.73
42.86
42.19
40.87
39.06
37.00
34.93
33.15
31.82
30.96
30.46
30.23
30.25
30.56
31.10
31.61
31.57
30.46
27.94
24.10
19.51
14.93
10.95
7.70
4.81
1.63
-2.39
-7.41
-13.05
-18.66
-23.53
-27.24
-29.85
-31.88
-34.14
-37.49
-42.54
-49.41
-57.41
-65.03
-70.19
-70.81
-65.53
-54.24
-38.24
-19.84
-1.61
14.41
27.12
36.41
42.85
47.20
50.12
51.97
52.91
52.98
52.28
50.95
49.21
47.22
45.12
42.95
40.73
38.56
36.64
35.24
34.54
34.49
34.74
34.74
33.91
31.82
28.39
23.82
18.58
13.19
8.05
3.40
-0.76
-4.65
-8.62
-12.96
-17.80
-23.02
-28.18
-32.70
-36.06
-38.02
-38.81
-39.08
-39.75
-41.79
-45.89
-52.26
-60.40
-68.95
-75.93
-79.12
-76.71
-67.98
-53.65
-35.74
-16.95
0.27
14.31
24.68
31.82
36.46
39.24
40.57
40.60
39.59
37.94
36.14
34.61
33.55
32.88
32.31
31.62
30.74
29.86
29.26
29.18
29.60
30.18
30.32
29.43
27.14
23.49
18.93
14.12
9.67
5.84
2.58
-0.55
-4.01
-8.18
-13.15
-18.69
-24.36
-29.65
-34.15
-37.68
-40.38
-42.77
-45.60
-49.77
-55.93
-64.18
-73.73
-82.86
-89.20
-90.42
-85.00
-72.83
-55.38
-35.17
-15.07
2.63
16.65
26.81
33.65
38.07
40.90
42.83
44.36
45.76
47.13
48.34
49.12
49.23
48.60
47.36
45.80
44.33
43.19
42.53
42.29
42.28
42.26
41.94
40.99
39.10
36.08
31.87
26.69
20.91
15.12
9.82
5.34
1.66
-1.53
-4.69
-8.24
-12.30
-16.70
-21.06
-24.98
-28.24
-30.92
-33.42
-36.32
-40.33
-46.05
-53.83
-63.46
-73.99
-83.67
-90.23
-91.46
-85.99
-73.83
-56.43
-36.35
-16.35
1.36
15.59
26.23
33.85
39.24
43.10
45.81
47.58
48.57
48.94
48.83
48.33
47.43
46.09
44.29
42.19
40.09
38.40
37.48
37.45
38.14
39.14
39.88
39.89
38.83
36.60
33.24
28.94
23.96
18.67
13.49
8.83
4.94
1.78
-1.06
-4.18
-8.12
-13.07
-18.72
-24.37
-29.22
-32.78
-35.08
-36.68
-38.38
-41.05
-45.36
-51.69
-60.07
-69.94
-79.97
-88.06
-91.69
-88.74
-78.30
-61.25
-40.08
-18.13
1.53
17.01
27.86
34.84
39.21
42.14
44.29
45.89
46.87
47.12
46.68
45.74
44.52
43.23
42.00
40.89
39.94
39.25
38.91
38.97
39.32
39.67
39.61
38.73
36.81
33.87
30.12
25.83
21.30
16.71
12.25
8.06
4.24
0.84
-2.26
-5.31
-8.69
-12.69
-17.44
-22.77
-28.31
-33.59
-38.26
-42.16
-45.46
-48.65
-52.43
-57.60
-64.71
-73.69
-83.61
-92.57
-98.00
-97.33
-88.95
-72.84
-50.84
-26.07
-2.03
18.45
33.90
44.28
50.53
53.84
55.25
55.30
54.26
52.35
49.89
47.26
44.79
42.61
40.64
38.76
36.94
35.43
34.59
34.76
35.97
37.82
39.62
40.59
40.22
38.39
35.29
31.39
27.08
22.57
17.94
13.25
8.59
4.18
0.23
-3.13
-5.95
-8.50
-11.12
-14.14
-17.81
-22.17
-27.10
-32.36
-37.68
-42.84
-47.83
-52.89
-58.54
-65.37
-73.86
-83.93
-94.70
-104.39
-110.53
-110.70
-103.25
-88.06
-66.71
-42.14
-17.72
3.63
20.15
31.48
38.22
41.48
42.29
41.37
39.16
35.88
31.73
26.97
21.87
16.76
11.88
7.38
3.24
-0.68
-4.62
-8.86
-13.62
-19.01
-25.05
-31.76
-39.23
-47.74
-57.69
-69.57
-83.63
-99.72
-117.22
-135.28
-153.04
-170.00
-186.16
-201.99
-218.27
-236.01
-256.41
-280.58
-308.93
-340.38
-371.86
-398.66
-415.69
-419.33
-408.86
-386.71
-357.46
-325.93
-295.59
-267.87
-242.64
-219.28
-197.53
-177.66
-160.02
-144.55
-130.51
-116.83
-102.67
-87.84
-72.82
-58.58
-46.02
-35.55
-26.99
-19.64
-12.62
-5.25
2.76
11.25
19.74
27.70
34.78
40.87
46.19
51.14
56.20
61.78
68.15
75.36
83.29
91.61
99.96
108.02
115.69
123.15
130.87
139.41
149.24
160.52
173.01
186.25
199.59
212.60
225.09
237.26
249.70
263.43
279.81
300.10
324.76
352.44
379.74
401.58
412.68
409.37
390.95
360.02
321.49
281.06
243.71
212.87
190.29
176.39
170.46
170.79
174.86
179.61
182.22
180.80
174.93
165.48
154.08
142.44
131.67
122.11
113.50
105.26
96.91
88.31
79.67
71.45
64.24
58.48
54.37
51.77
50.14
48.76
46.87
43.95
39.89
34.98
29.77
24.80
20.33
16.27
12.26
7.92
3.12
-1.88
-6.60
-10.56
-13.54
-15.75
-17.69
-19.86
-22.61
-25.99
-29.79
-33.77
-37.74
-41.62
-45.46
-49.38
-53.65
-58.68
-64.89
-72.40
-80.73
-88.52
-93.70
-94.06
-87.97
-75.07
-56.58
-34.92
-13.09
6.28
21.53
32.18
38.72
42.19
43.62
43.78
43.10
41.74
39.83
37.53
35.11
32.88
31.14
30.02
29.50
29.44
29.58
29.75
29.80
29.68
29.35
28.79
27.84
26.32
24.07
21.01
17.20
12.86
8.28
3.75
-0.51
-4.45
-8.08
-11.51
-14.90
-18.37
-22.04
-25.96
-30.11
-34.31
-38.37
-42.12
-45.58
-49.03
-52.96
-57.94
-64.33
-72.06
-80.42
-88.11
-93.37
-94.35
-89.63
-78.68
-62.14
-41.82
-20.29
-0.22
16.29
28.19
35.56
39.23
40.39
40.07
38.98
37.46
35.58
33.31
30.59
27.43
23.92
20.32
17.00
14.41
12.81
12.13
11.88
11.22
9.32
5.63
0.13
-6.68
-14.00
-21.16
-27.84
-34.25
-40.87
-48.23
-56.61
-65.91
-75.89
-86.03
-95.64
-103.63
-108.63
-109.62
-107.07
-104.17
-106.60
-120.44
-148.69
-188.37
-229.93
-260.03
-266.55
-243.14
-191.10
-117.88
-33.63
51.94
130.65
195.45
239.83
258.61
250.31
219.02
174.47
129.05
93.38
72.61
65.09
64.44
63.23
56.95
45.65
33.08
23.89
20.83
23.34
28.15
31.19
29.74
23.60
14.53
4.90
-3.89
-11.83
-19.89
-28.80
-38.09
-46.02
-50.27
-49.05
-41.87
-29.81
-15.23
-0.78
11.30
20.03
25.73
29.44
32.26
34.57
35.85
35.04
31.25
24.31
15.00
4.75
-4.93
-12.91
-18.67
-22.31
-24.15
-24.56
-23.74
-21.62
-18.23
-13.74
-8.57
-3.29
1.60
5.73
8.98
11.32
12.70
13.01
11.97
9.58
6.08
2.15
-1.24
-3.24
-3.34
-1.84
0.38
2.22
3.03
2.95
2.87
3.88
6.53
10.41
14.32
16.63
16.50
13.92
9.71
5.07
0.64
-3.53
-7.92
-12.89
-18.22
-23.10
-26.55
-28.11
-28.06
-27.42
-27.70
-29.99
-34.75
-41.58
-49.28
-56.61
-62.44
-66.19
-67.70
-67.05
-64.30
-59.46
-52.54
-43.71
-33.50
-22.75
-12.40
-3.32
4.08
9.88
14.39
18.04
20.88
22.80
23.59
23.26
22.16
20.90
20.08
20.04
20.75
21.93
23.15
24.20
25.03
25.83
26.81
27.97
29.06
29.63
29.26
27.74
25.22
22.06
18.67
15.35
12.14
8.91
5.45
1.52
-2.98
-8.12
-13.77
-19.62
-25.16
-29.71
-32.54
-33.04
-30.92
-26.30
-19.62
-11.60
-3.04
5.36
12.95
19.36
24.37
27.98
30.35
31.66
32.11
31.84
30.93
29.51
27.80
26.13
24.85
24.24
24.42
25.30
26.70
28.35
30.04
31.56
32.68
33.19
32.85
31.50
29.11
25.82
21.99
18.03
14.28
10.85
7.60
4.17
0.13
-4.74
-10.35
-16.20
-21.51
-25.39
-27.13
-26.32
-22.93
-17.36
-10.26
-2.43
5.35
12.39
18.20
22.54
25.41
27.03
27.77
28.07
28.26
28.55
28.87
29.06
28.90
28.34
27.58
27.00
27.01
27.87
29.53
31.65
33.72
35.29
36.09
36.09
35.38
34.00
31.94
29.07
25.32
20.79
15.73
10.47
5.24
0.02
-5.37
-11.25
-17.89
-25.38
-33.62
-42.24
-50.70
-58.27
-64.20
-67.76
-68.45
-66.13
-61.07
-53.92
-45.56
-36.86
-28.58
-21.20
-14.90
-9.65
-5.30
-1.71
1.16
3.18
4.19
4.08
2.97
1.24
-0.51
-1.66
-1.73
-0.58
1.67
4.72
8.24
11.97
15.72
19.22
22.14
24.05
24.65
23.91
22.11
19.80
17.59
15.95
15.10
14.95
15.25
15.65
15.81
15.50
14.63
13.33
11.97
11.16
11.58
13.93
18.73
26.16
36.02
47.57
59.74
71.28
81.07
88.30
92.68
94.31
93.66
91.38
88.18
84.71
81.42
78.55
76.04
73.63
70.95
67.75
63.93
59.56
54.77
49.63
44.05
37.99
31.45
24.59
17.65
10.89
4.39
-1.95
-8.34
-15.02
-22.04
-29.25
-36.26
-42.65
-48.05
-52.33
-55.67
-58.46
-61.28
-64.62
-68.80
-73.82
-79.26
-84.32
-87.93
-88.97
-86.57
-80.41
-70.90
-59.09
-46.37
-34.07
-23.16
-14.07
-6.82
-1.15
3.30
6.84
9.78
12.28
14.40
16.08
17.15
17.46
16.99
15.91
14.60
13.47
12.84
12.90
13.55
14.46
15.21
15.37
14.61
12.85
10.23
7.02
3.55
0.08
-3.32
-6.69
-10.10
-13.61
-17.21
-20.81
-24.25
-27.48
-30.50
-33.47
-36.63
-40.32
-44.77
-49.97
-55.51
-60.51
-63.83
-64.36
-61.41
-55.00
-45.93
-35.42
-24.83
-15.23
-7.19
-0.82
4.07
7.72
10.30
11.82
12.30
11.78
10.50
8.88
7.46
6.66
6.69
7.42
8.47
9.46
10.13
10.44
10.53
10.54
10.47
10.17
9.41
8.02
5.99
3.47
0.67
-2.18
-4.95
-7.65
-10.33
-13.11
-16.09
-19.39
-23.14
-27.47
-32.39
-37.67
-42.77
-46.80
-48.77
-47.88
-43.82
-36.96
-28.16
-18.51
-9.03
-0.38
7.11
13.37
18.38
22.14
24.60
25.77
25.77
24.81
23.20
21.29
19.38
17.77
16.65
16.10
16.05
16.33
16.68
16.92
16.92
16.65
16.12
15.28
14.00
12.09
9.38
5.84
1.63
-2.96
-7.59
-11.97
-15.99
-19.62
-22.94
-26.07
-29.16
-32.45
-36.11
-40.10
-43.98
-46.92
-47.83
-45.80
-40.51
-32.37
-22.39
-11.87
-1.92
6.73
13.75
19.10
22.84
25.08
26.06
26.12
25.65
24.96
24.14
23.10
21.66
19.80
17.66
15.58
13.84
12.58
11.77
11.26
10.93
10.74
10.68
10.73
10.77
10.61
10.00
8.74
6.67
3.68
-0.18
-4.72
-9.50
-13.98
-17.70
-20.47
-22.48
-24.23
-26.37
-29.41
-33.48
-38.28
-43.00
-46.59
-47.99
-46.40
-41.59
-33.96
-24.47
-14.32
-4.61
3.89
10.86
16.30
20.38
23.35
25.42
26.78
27.60
28.01
28.11
27.99
27.69
27.29
26.89
26.54
26.26
25.99
25.65
25.16
24.52
23.74
22.93
22.12
21.26
20.18
18.62
16.27
12.91
8.59
3.56
-1.68
-6.60
-10.85
-14.36
-17.46
-20.80
-25.27
-31.85
-41.40
-54.37
-70.46
-88.36
-105.83
-120.15
-128.94
-130.94
-126.43
-117.03
-105.01
-92.48
-80.76
-70.25
-60.74
-51.83
-43.22
-34.80
-26.52
-18.27
-9.87
-1.15
7.80
16.58
24.57
31.05
35.45
37.56
37.64
36.32
34.43
32.63
31.22
30.04
28.51
26.01
22.10
16.79
10.55
4.11
-1.85
-6.89
-11.00
-14.48
-17.77
-21.20
-24.92
-28.89
-33.00
-37.08
-40.83
-43.83
-45.56
-45.44
-43.16
-38.87
-33.28
-27.55
-22.97
-20.47
-20.26
-21.68
-23.39
-23.88
-21.94
-17.11
-9.71
-0.65
9.00
18.31
26.71
34.05
40.47
46.27
51.76
57.27
62.99
68.96
75.03
80.85
85.91
89.71
91.83
92.04
90.38
87.21
83.16
79.12
75.93
74.30
74.54
76.57
79.89
83.69
86.91
88.41
87.19
82.57
74.51
63.76
51.92
41.15
33.60
30.89
33.55
40.90
51.19
62.18
71.73
78.36
81.50
81.37
78.68
74.19
68.56
62.20
55.42
48.43
41.42
34.57
27.92
21.45
15.08
8.86
2.91
-2.54
-7.29
-11.31
-14.66
-17.59
-20.28
-22.91
-25.58
-28.36
-31.34
-34.58
-38.07
-41.68
-45.19
-48.36
-51.03
-53.20
-54.95
-56.37
-57.56
-58.56
-59.41
-60.28
-61.35
-62.76
-64.43
-65.84
-66.12
-64.20
-59.23
-50.91
-39.70
-26.81
-13.80
-2.25
6.82
12.95
16.34
17.50
16.94
15.04
12.05
8.23
3.94
-0.33
-4.13
-7.16
-9.47
-11.30
-13.03
-14.94
-17.12
-19.48
-21.84
-24.09
-26.21
-28.36
-30.67
-33.21
-35.83
-38.21
-39.93
-40.65
-40.28
-39.03
-37.30
-35.61
-34.35
-33.72
-33.66
-33.93
-34.09
-33.68
-32.18
-29.19
-24.47
-18.09
-10.49
-2.41
5.26
11.70
16.37
19.06
19.81
18.86
16.56
13.29
9.50
5.66
2.22
-0.46
-2.24
-3.15
-3.37
-3.08
-2.45
-1.63
-0.78
-0.11
0.17
-0.08
-0.88
-2.11
-3.64
-5.29
-6.87
-8.18
-8.97
-9.13
-8.78
-8.37
-8.55
-9.81
-12.23
-15.31
-18.19
-20.06
-20.55
-19.85
-18.50
-17.04
-15.71
-14.39
-12.77
-10.67
-8.20
-5.74
-3.75
-2.50
-1.98
-1.91
-1.89
-1.63
-1.08
-0.49
-0.24
-0.66
-1.84
-3.63
-5.64
-7.55
-9.13
-10.36
-11.31
-12.03
-12.47
-12.52
-12.14
-11.40
