1551115113.00
64.000000
-0.00
-0.00
-0.00
-0.00
-0.00
-0.00
-0.00
-0.00
-0.00
-0.00
0.00
0.01
0.01
-0.00
-0.03
-0.05
-0.05
0.00
0.13
0.36
0.66
1.01
1.37
1.72
2.06
2.40
2.79
3.24
3.80
4.42
5.06
5.66
6.20
6.68
7.15
7.68
8.31
9.14
10.09
11.04
11.88
12.56
13.14
13.76
14.65
15.96
17.91
20.32
22.90
25.38
27.58
29.57
31.68
34.32
37.81
42.54
48.15
54.10
59.83
64.97
69.58
74.14
79.34
85.71
93.76
103.00
112.62
121.73
129.77
136.75
143.30
150.75
157.77
166.64
177.95
191.79
206.97
220.57
228.25
225.36
208.53
176.87
132.76
80.05
23.07
-34.94
-92.44
-149.16
-205.23
-260.37
-313.74
-363.87
-409.83
-450.91
-486.50
-515.74
-537.23
-549.22
-549.96
-538.37
-514.20
-478.67
-433.86
-382.42
-326.98
-269.77
-212.54
-156.53
-102.78
-52.16
-5.64
35.90
71.80
101.78
126.00
144.94
159.32
169.84
177.13
181.59
183.49
183.07
180.59
176.42
170.95
164.59
157.69
150.49
143.15
135.72
128.25
120.79
113.40
106.15
99.11
92.34
85.86
79.70
73.87
68.37
63.22
58.43
54.00
49.94
46.25
42.92
39.94
37.32
35.04
33.10
31.50
30.22
29.25
28.61
28.28
28.25
28.51
29.04
29.80
30.74
31.77
32.80
33.68
34.27
34.39
33.88
32.62
30.50
27.51
23.66
19.02
13.76
8.09
2.25
-3.49
-8.88
-13.70
-17.77
-20.97
-23.24
-24.58
-25.06
-24.77
-23.83
-22.38
-20.56
-18.48
-16.22
-13.86
-11.42
-8.95
-6.48
-4.01
-1.53
0.96
3.47
6.04
8.68
11.43
14.24
17.10
19.99
22.93
25.92
29.00
32.21
35.60
39.25
43.08
47.03
51.09
55.26
59.56
64.01
68.67
73.61
78.95
84.54
90.30
96.18
102.16
108.20
114.32
120.50
126.75
133.14
139.33
145.08
150.16
154.30
157.20
158.48
157.58
153.71
148.36
142.05
135.11
127.78
120.22
112.57
104.96
97.54
90.46
83.88
77.66
71.72
66.02
60.56
55.36
50.44
45.85
41.65
37.94
34.58
31.45
28.50
25.67
22.91
20.21
17.56
15.02
12.68
10.50
8.45
6.53
4.71
2.97
1.27
-0.38
-1.94
-3.34
-4.59
-5.67
-6.62
-7.47
-8.33
-9.28
-10.35
-11.52
-12.71
-13.83
-14.84
-15.77
-16.78
-18.08
-19.88
-22.26
-25.15
-28.30
-31.42
-34.29
-36.93
-39.58
-42.70
-46.72
-51.87
-58.03
-64.82
-71.67
-78.22
-84.44
-90.73
-97.77
-106.19
-116.31
-127.90
-140.35
-152.87
-164.91
-176.36
-187.57
-199.26
-212.30
-227.67
-246.17
-268.20
-293.04
-318.57
-341.19
-356.75
-361.86
-355.17
-337.98
-313.66
-286.34
-259.45
-234.89
-213.06
-193.59
-176.11
-160.59
-147.15
-135.65
-125.50
-115.78
-105.79
-95.45
-85.36
-76.65
-70.33
-66.77
-65.41
-64.81
-63.12
-58.68
-50.66
-39.23
-25.48
-10.95
2.93
15.27
25.80
34.78
42.60
49.56
55.71
60.86
64.82
67.50
68.96
69.44
69.27
68.72
67.99
67.17
66.28
65.28
64.15
62.87
61.44
59.85
58.13
56.28
54.27
52.08
49.66
46.99
44.11
41.12
38.19
35.42
32.85
30.42
27.98
25.38
22.48
19.21
15.59
11.65
7.52
3.34
-0.72
-4.54
-8.12
-11.59
-15.18
-19.13
-23.61
-28.66
-34.11
-39.51
-44.20
-47.34
-48.13
-46.02
-40.98
-33.55
-24.71
-15.65
-7.33
-0.35
5.19
9.57
13.17
16.26
18.92
21.17
22.97
24.43
25.76
27.18
28.83
30.65
32.45
33.98
35.15
35.97
36.56
37.06
37.51
37.81
37.77
37.18
35.90
33.90
31.26
28.23
25.09
22.10
19.44
17.14
15.07
13.01
10.69
7.97
4.82
1.40
-2.04
-5.23
-8.06
-10.60
-13.20
-16.33
-20.44
-25.77
-32.13
-38.92
-45.13
-49.58
-51.22
-49.43
-44.14
-35.95
-25.90
-15.20
-4.95
4.10
11.64
17.69
22.51
26.41
29.68
32.48
34.88
36.83
38.24
39.02
39.17
38.83
38.26
37.78
37.66
38.06
38.94
40.15
41.45
42.59
43.35
43.62
43.32
42.41
40.82
38.51
35.44
31.72
27.60
23.45
19.59
16.20
13.22
10.42
7.54
4.39
0.95
-2.70
-6.38
-9.95
-13.36
-16.68
-19.99
-23.45
-27.23
-31.49
-36.28
-41.46
-46.61
-51.01
-53.75
-53.89
-50.82
-44.44
-35.31
-24.54
-13.44
-3.18
5.50
12.37
17.63
21.63
24.70
27.08
28.90
30.28
31.33
32.12
32.68
32.98
32.99
32.77
32.53
32.52
32.92
33.70
34.64
35.41
35.71
35.42
34.58
33.32
31.72
29.79
27.50
24.85
21.95
19.00
16.22
13.69
11.39
9.12
6.66
3.87
0.70
-2.77
-6.44
-10.17
-13.83
-17.32
-20.62
-23.82
-27.13
-30.83
-35.14
-40.03
-45.20
-50.04
-53.84
-55.81
-55.31
-51.92
-45.55
-36.62
-26.00
-14.93
-4.63
4.08
10.93
16.22
20.49
24.10
27.10
29.28
30.45
30.64
30.20
29.59
29.15
28.94
28.82
28.65
28.47
28.50
28.99
30.01
31.36
32.58
33.20
32.89
31.59
29.43
26.71
23.70
20.69
17.91
15.50
13.43
11.48
9.33
6.65
3.29
-0.65
-4.83
-8.85
-12.42
-15.50
-18.30
-21.19
-24.54
-28.65
-33.62
-39.31
-45.30
-50.81
-54.84
-56.37
-54.69
-49.61
-41.62
-31.71
-21.14
-11.01
-2.11
5.24
11.00
15.31
18.34
20.24
21.20
21.45
21.29
20.98
20.68
20.47
20.30
20.18
20.17
20.38
20.89
21.70
22.61
23.30
23.39
22.63
20.94
18.45
15.39
12.02
8.57
5.12
1.70
-1.69
-5.07
-8.38
-11.50
-14.23
-16.32
-17.60
-18.05
-17.95
-17.87
-18.48
-20.38
-23.75
-28.30
-33.25
-37.59
-40.34
-40.78
-38.56
-33.79
-26.89
-18.56
-9.64
-0.96
6.83
13.38
18.66
22.78
25.94
28.24
29.70
30.30
30.10
29.25
28.03
26.71
25.56
24.73
24.25
24.12
24.25
24.50
24.72
24.73
24.40
23.58
22.21
20.30
17.92
15.21
12.35
9.50
6.74
4.06
1.34
-1.61
-4.97
-8.84
-13.13
-17.62
-21.95
-25.89
-29.40
-32.75
-36.39
-40.71
-45.79
-51.19
-56.03
-59.22
-59.82
-57.33
-51.85
-44.00
-34.71
-24.96
-15.58
-7.14
0.09
6.11
11.06
15.18
18.65
21.56
23.91
25.65
26.73
27.18
27.14
26.78
26.31
25.90
25.64
25.57
25.66
25.86
26.07
26.15
25.93
25.28
24.11
22.39
20.17
17.54
14.61
11.46
8.18
4.78
1.27
-2.33
-6.01
-9.65
-13.14
-16.36
-19.33
-22.26
-25.53
-29.58
-34.70
-40.84
-47.42
-53.50
-57.91
-59.62
-58.02
-53.09
-45.40
-35.92
-25.75
-15.82
-6.75
1.19
7.98
13.74
18.53
22.41
25.42
27.63
29.17
30.23
30.99
31.52
31.85
31.90
31.72
31.40
31.14
31.12
31.35
31.67
31.73
31.17
29.75
27.45
24.52
21.38
18.40
15.83
13.64
11.62
9.49
7.01
4.08
0.73
-2.90
-6.67
-10.47
-14.23
-17.98
-21.78
-25.82
-30.29
-35.34
-40.91
-46.62
-51.68
-55.11
-55.95
-53.59
-48.01
-39.75
-29.79
-19.21
-8.95
0.38
8.50
15.40
21.15
25.84
29.58
32.40
34.36
35.50
35.88
35.59
34.80
33.70
32.51
31.41
30.51
29.88
29.54
29.49
29.73
30.19
30.76
31.19
31.28
30.82
29.79
28.22
26.26
24.01
21.52
18.77
15.65
12.07
7.96
3.43
-1.31
-5.94
-10.15
-13.79
-16.98
-20.11
-23.68
-28.16
-33.76
-40.34
-47.38
-54.02
-59.25
-62.08
-61.76
-57.95
-50.91
-41.42
-30.59
-19.58
-9.28
-0.14
7.77
14.63
20.70
26.13
30.95
35.06
38.33
40.61
41.88
42.32
42.29
42.22
42.53
43.39
44.67
46.06
47.16
47.70
47.62
47.02
46.03
44.71
43.02
40.86
38.21
35.08
31.58
27.86
23.99
20.07
16.10
12.09
8.02
3.89
-0.21
-4.12
-7.64
-10.60
-12.98
-15.04
-17.29
-20.35
-24.79
-30.82
-38.20
-46.19
-53.70
-59.52
-62.60
-62.29
-58.48
-51.54
-42.34
-31.94
-21.46
-11.78
-3.41
3.57
9.36
14.32
18.76
22.77
26.28
29.14
31.20
32.38
32.74
32.35
31.29
29.54
27.13
24.17
20.92
17.75
14.99
12.81
11.10
9.54
7.74
5.44
2.66
-0.36
-3.26
-5.79
-7.94
-9.85
-11.83
-14.07
-16.61
-19.38
-22.24
-25.19
-28.37
-32.00
-36.26
-41.10
-46.07
-50.45
-53.32
-53.82
-51.39
-45.96
-37.98
-28.34
-18.12
-8.30
0.44
7.88
14.14
19.47
24.03
27.76
30.38
31.63
31.54
30.45
28.97
27.71
27.02
26.91
27.06
27.10
26.77
26.07
25.18
24.29
23.47
22.56
21.39
19.76
17.68
15.24
12.57
9.71
6.57
3.03
-0.95
-5.21
-9.37
-13.03
-15.96
-18.25
-20.30
-22.75
-26.14
-30.76
-36.46
-42.71
-48.59
-53.05
-55.05
-53.89
-49.42
-42.07
-32.79
-22.77
-13.09
-4.47
2.85
9.00
14.21
18.67
22.41
25.34
27.37
28.49
28.84
28.64
28.12
27.45
26.72
25.97
25.21
24.48
23.88
23.52
23.49
23.73
24.09
24.21
23.69
22.18
19.59
16.16
12.39
8.84
5.89
3.61
1.73
-0.17
-2.43
-5.16
-8.25
-11.51
-14.75
-17.97
-21.23
-24.71
-28.61
-33.08
-38.18
-43.72
-49.19
-53.74
-56.32
-56.03
-52.44
-45.78
-36.90
-26.96
-17.03
-7.88
0.15
7.05
12.97
18.04
22.31
25.78
28.43
30.24
31.27
31.60
31.38
30.82
30.20
29.77
29.74
30.13
30.81
31.52
32.00
32.09
31.80
31.20
30.37
29.32
27.94
26.13
23.84
21.14
18.26
15.44
12.85
10.49
8.17
5.62
2.62
-0.93
-4.88
-8.92
-12.68
-15.92
-18.63
-21.02
-23.46
-26.37
-30.10
-34.78
-40.26
-46.03
-51.27
-55.01
-56.28
-54.49
-49.57
-42.01
-32.73
-22.78
-13.09
-4.28
3.36
9.81
15.21
19.70
23.35
26.17
28.11
29.15
29.42
29.15
28.66
28.25
28.07
28.12
28.28
28.41
28.46
28.45
28.44
28.44
28.33
27.92
27.03
25.57
23.63
21.43
19.22
17.11
15.08
13.02
10.76
8.24
5.50
2.69
-0.08
-2.74
-5.33
-7.97
-10.72
-13.62
-16.66
-19.81
-23.12
-26.73
-30.76
-35.29
-40.11
-44.71
-48.27
-49.87
-48.79
-44.73
-37.97
-29.32
-19.83
-10.61
-2.41
4.35
9.65
13.69
16.77
19.19
21.17
22.83
24.20
25.25
25.95
26.30
26.34
26.16
25.83
25.42
24.98
24.51
24.07
23.62
23.11
22.41
21.37
19.83
17.76
15.27
12.57
9.92
7.47
5.20
2.91
0.38
-2.53
-5.80
-9.24
-12.59
-15.61
-18.22
-20.50
-22.75
-25.38
-28.77
-33.11
-38.24
-43.61
-48.33
-51.40
-51.93
-49.45
-44.02
-36.21
-26.97
-17.38
-8.37
-0.56
5.84
10.93
14.97
18.20
20.70
22.45
23.44
23.74
23.61
23.29
22.97
22.65
22.23
21.66
20.98
20.38
20.08
20.23
20.74
21.37
21.75
21.52
20.46
18.54
15.94
12.99
10.07
7.46
5.21
3.12
0.84
-2.00
-5.55
-9.67
-13.97
-17.98
-21.38
-24.13
-26.49
-28.88
-31.77
-35.43
-39.90
-44.92
-49.91
-54.05
-56.34
-55.91
-52.23
-45.43
-36.23
-25.90
-15.76
-6.85
0.35
5.92
10.25
13.80
16.84
19.44
21.53
23.02
23.86
24.11
23.87
23.30
22.57
21.86
21.32
21.07
21.17
21.58
22.20
22.83
23.25
23.21
22.50
21.02
18.84
16.14
13.22
10.40
7.90
5.80
4.01
2.33
0.54
-1.54
-4.01
-6.84
-9.88
-12.95
-15.81
-18.37
-20.72
-23.16
-26.17
-30.15
-35.26
-41.25
-47.40
-52.68
-55.99
-56.44
-53.61
-47.66
-39.29
-29.58
-19.72
-10.72
-3.18
2.76
7.34
11.03
14.26
17.30
20.20
22.84
25.04
26.65
27.60
27.98
27.93
27.68
27.44
27.31
27.32
27.41
27.50
27.54
27.49
27.30
26.85
25.95
24.39
22.05
18.97
15.43
11.82
8.54
5.82
3.69
1.92
0.18
-1.84
-4.31
-7.13
-10.09
-12.89
-15.39
-17.60
-19.72
-22.07
-24.93
-28.52
-32.94
-38.14
-43.81
-49.38
-53.99
-56.62
-56.38
-52.85
-46.20
-37.25
-27.15
-17.04
-7.78
0.20
6.87
12.36
16.87
20.51
23.34
25.41
26.78
27.58
27.94
28.01
27.93
27.83
27.83
28.02
28.47
29.09
29.72
30.19
30.33
30.12
29.61
28.87
27.88
26.52
24.62
22.06
18.91
15.43
11.96
8.74
5.83
3.10
0.32
-2.66
-5.88
-9.24
-12.64
-15.95
-19.13
-22.17
-25.14
-28.13
-31.29
-34.84
-38.96
-43.60
-48.41
-52.69
-55.53
-56.08
-53.79
-48.60
-40.94
-31.60
-21.53
-11.67
-2.73
4.90
11.12
16.10
20.11
23.38
26.02
28.04
29.42
30.19
30.48
30.50
30.37
30.13
29.72
29.09
28.27
27.38
26.61
26.06
25.74
25.55
25.34
24.96
24.31
23.33
21.90
19.94
17.46
14.61
11.67
8.93
6.54
4.38
2.18
-0.45
-3.66
-7.40
-11.37
-15.20
-18.64
-21.65
-24.43
-27.34
-30.76
-35.01
-40.21
-46.15
-52.28
-57.74
-61.53
-62.75
-60.84
-55.79
-48.15
-38.82
-28.90
-19.33
-10.76
-3.44
2.71
7.94
12.54
16.65
20.21
23.07
25.05
26.16
26.59
26.69
26.84
27.23
27.87
28.54
29.00
29.15
29.05
28.90
28.87
28.99
29.08
28.87
28.18
26.96
25.36
23.58
21.76
19.94
18.02
15.93
13.60
11.04
8.24
5.21
1.89
-1.69
-5.43
-9.17
-12.73
-16.05
-19.22
-22.50
-26.18
-30.50
-35.46
-40.81
-45.95
-50.07
-52.32
-52.02
-48.84
-42.94
-34.95
-25.75
-16.27
-7.25
0.85
7.79
13.56
18.16
21.63
24.08
25.60
26.39
26.66
26.64
26.49
26.31
26.12
25.90
25.65
25.37
25.12
24.98
24.92
24.87
24.64
24.02
22.81
20.97
18.57
15.82
12.93
10.07
7.30
4.54
1.66
-1.47
-4.87
-8.40
-11.81
-14.85
-17.38
-19.47
-21.40
-23.60
-26.49
-30.34
-35.10
-40.39
-45.50
-49.52
-51.48
-50.66
-46.76
-40.07
-31.41
-21.87
-12.47
-3.88
3.63
10.10
15.63
20.28
23.98
26.70
28.46
29.49
30.03
30.31
30.41
30.30
29.98
29.48
28.89
28.33
27.91
27.70
27.73
27.95
28.26
28.46
28.28
27.47
25.96
23.78
21.16
18.36
15.53
12.70
9.73
6.50
2.93
-0.93
-4.89
-8.78
-12.51
-16.07
-19.54
-23.08
-26.83
-30.92
-35.47
-40.56
-46.11
-51.81
-57.07
-61.13
-63.22
-62.75
-59.56
-53.86
-46.22
-37.39
-28.17
-19.20
-10.96
-3.72
2.42
7.52
11.72
15.18
18.00
20.22
21.85
22.90
23.43
23.57
23.53
23.49
23.63
24.02
24.65
25.42
26.17
26.72
26.96
26.84
26.37
25.54
24.38
22.82
20.85
18.49
15.85
13.09
10.33
7.64
4.97
2.24
-0.65
-3.75
-7.04
-10.40
-13.64
-16.60
-19.24
-21.72
-24.32
-27.38
-31.21
-35.91
-41.35
-47.16
-52.73
-57.26
-59.84
-59.66
-56.32
-49.93
-41.22
-31.35
-21.47
-12.44
-4.55
2.29
8.35
13.78
18.44
22.04
24.27
24.98
24.33
22.62
20.27
17.69
15.26
13.31
12.11
11.83
12.48
13.93
15.90
18.03
19.98
21.49
22.38
22.59
22.10
21.04
19.58
17.96
16.43
15.16
14.17
13.32
12.38
11.06
9.12
6.47
3.15
-0.61
-4.47
-8.11
-11.36
-14.24
-17.03
-20.21
-24.30
-29.63
-36.23
-43.67
-51.05
-57.19
-60.94
-61.43
-58.39
-52.18
-43.68
-33.98
-24.13
-14.82
-6.47
0.81
7.08
12.46
17.07
20.99
24.25
26.81
28.63
29.69
30.08
30.02
29.81
29.74
30.02
30.74
31.85
33.20
34.53
35.55
35.91
35.36
33.83
31.49
28.77
26.18
24.13
22.81
22.15
21.83
21.43
20.53
18.83
16.21
12.69
8.50
3.99
-0.48
-4.65
-8.41
-11.83
-15.09
-18.46
-22.16
-26.40
-31.27
-36.65
-42.15
-47.01
-50.28
-51.08
-48.85
-43.61
-35.95
-26.80
-17.19
-7.98
0.29
7.33
13.10
17.71
21.32
24.18
26.51
28.48
30.15
31.48
32.36
32.69
32.46
31.82
31.08
30.50
30.27
30.40
30.73
31.04
31.15
30.94
30.38
29.49
28.24
26.59
24.55
22.22
19.76
17.28
14.79
12.14
9.12
5.58
1.51
-2.87
-7.30
-11.56
-15.57
-19.50
-23.61
-28.22
-33.52
-39.44
-45.58
-51.29
-55.70
-58.02
-57.62
-54.26
-48.13
-39.84
-30.29
-20.49
-11.34
-3.45
2.92
7.84
11.57
14.42
16.59
18.23
19.40
20.21
20.80
21.33
21.89
22.51
23.14
23.69
24.20
24.72
25.30
25.92
26.43
26.56
26.05
24.71
22.51
19.58
16.15
12.45
8.71
5.10
1.69
-1.54
-4.67
-7.80
-11.01
-14.33
-17.78
-21.43
-25.43
-30.01
-35.26
-41.04
-46.77
-51.58
-54.47
-54.66
-51.86
-46.33
-38.82
-30.28
-21.64
-13.58
-6.46
-0.41
4.60
8.64
11.84
14.32
16.21
17.69
18.91
20.04
21.14
22.23
23.27
24.22
25.04
25.72
26.28
26.72
26.99
27.02
26.73
26.05
24.94
23.41
21.54
19.44
17.27
15.07
12.85
10.50
7.88
4.87
1.43
-2.34
-6.26
-10.12
-13.78
-17.24
-20.63
-24.13
-27.94
-32.20
-36.91
-41.86
-46.56
-50.30
-52.27
-51.82
-48.66
-42.97
-35.36
-26.64
-17.58
-8.77
-0.53
6.93
13.46
18.87
22.99
25.76
27.26
27.75
27.58
27.12
26.62
26.27
26.10
26.13
26.39
26.87
27.61
28.54
29.53
30.37
30.80
30.62
29.72
28.19
26.25
24.17
22.17
20.34
18.59
16.71
14.43
11.59
8.14
4.28
0.24
-3.72
-7.51
-11.20
-15.06
-19.35
-24.27
-29.74
-35.45
-40.79
-45.04
-47.41
-47.33
-44.53
-39.16
-31.77
-23.15
-14.16
-5.52
2.33
9.18
15.01
19.86
23.75
26.62
28.43
29.22
29.18
28.67
28.12
27.92
28.29
29.21
30.43
31.56
32.20
32.13
31.33
29.93
28.15
26.12
23.85
21.20
18.02
14.25
9.96
5.38
0.77
-3.61
-7.65
-11.29
-14.59
-17.66
-20.68
-23.87
-27.46
-31.56
-36.03
-40.38
-43.84
-45.49
-44.59
-40.81
-34.38
-26.06
-16.92
-7.99
-0.09
6.39
11.38
15.07
17.71
19.51
20.58
21.05
21.00
20.61
20.04
19.44
18.89
18.44
18.06
17.73
17.43
17.14
16.76
16.19
15.30
13.96
12.12
9.86
7.32
4.74
2.26
-0.03
-2.19
-4.36
-6.69
-9.30
-12.20
-15.31
-18.49
-21.64
-24.78
-28.07
-31.77
-36.03
-40.73
-45.37
-49.14
-51.10
-50.54
-47.16
-41.18
-33.22
-24.13
-14.73
-5.72
2.41
9.36
15.03
19.43
22.70
25.02
26.59
27.56
28.01
27.96
27.47
26.65
25.65
24.64
23.73
22.97
22.29
21.58
20.72
19.65
18.41
17.11
15.85
14.67
13.56
12.49
11.36
10.11
8.66
6.92
4.78
2.21
-0.82
-4.17
-7.68
-11.16
-14.52
-17.80
-21.23
-25.09
-29.62
-34.78
-40.14
-44.88
-47.96
-48.46
-45.90
-40.45
-32.86
-24.20
-15.49
-7.48
-0.50
5.40
10.33
14.38
17.65
20.23
22.23
23.78
25.00
25.93
26.57
26.89
26.89
26.54
25.89
25.01
24.05
23.20
22.59
22.27
22.10
21.83
21.15
19.86
17.97
15.67
13.28
11.04
9.01
7.07
4.95
2.38
-0.78
-4.49
-8.49
-12.41
-15.91
-18.79
-21.12
-23.23
-25.59
-28.59
-32.46
-37.09
-42.02
-46.52
-49.70
-50.78
-49.21
-44.92
-38.37
-30.40
-22.01
-14.02
-6.96
-0.92
4.23
8.73
12.75
16.30
19.28
21.54
22.97
23.55
23.40
22.77
21.95
21.26
20.87
20.84
21.08
21.45
21.77
21.97
21.98
21.72
21.12
20.06
18.52
16.54
14.26
11.89
9.59
7.43
5.31
3.09
0.57
-2.33
-5.54
-8.88
-12.09
-14.94
-17.31
-19.24
-20.96
-22.81
-25.17
-28.34
-32.40
-37.12
-41.98
-46.20
-48.93
-49.43
-47.32
-42.63
-35.81
-27.61
-18.91
-10.50
-2.96
3.42
8.62
12.77
16.06
18.62
20.44
21.45
21.63
21.05
19.96
18.71
17.63
16.99
16.84
17.09
17.58
18.10
18.45
18.45
18.00
17.04
15.61
13.82
11.81
9.70
7.57
5.45
3.35
1.27
-0.80
-2.86
-4.93
-7.05
-9.23
-11.51
-13.96
-16.67
-19.83
-23.62
-28.05
-32.94
-37.75
-41.69
-43.89
-43.66
-40.72
-35.33
-28.18
-20.17
-12.15
-4.70
1.92
7.67
12.59
16.71
20.00
22.44
24.03
24.87
25.05
24.69
23.92
22.87
21.75
20.76
20.07
19.78
19.88
20.24
20.69
21.03
21.07
20.67
19.73
18.22
16.21
13.83
11.26
8.65
6.07
3.50
0.85
-2.00
-5.11
-8.41
-11.72
-14.86
-17.66
-20.17
-22.56
-25.17
-28.37
-32.40
-37.24
-42.53
-47.57
-51.47
-53.31
-52.46
-48.76
-42.59
-34.78
-26.30
-18.01
-10.39
-3.61
2.40
7.77
12.52
16.56
19.80
22.14
23.64
24.42
24.67
24.52
24.09
23.52
22.93
22.52
22.50
23.00
24.00
25.27
26.47
27.20
27.15
26.19
24.39
21.94
19.09
16.03
12.92
9.90
7.06
4.46
2.09
-0.13
-2.38
-4.85
-7.70
-10.94
-14.41
-17.87
-21.08
-23.91
-26.45
-28.96
-31.79
-35.26
-39.45
-44.16
-48.84
-52.69
-54.82
-54.49
-51.31
-45.37
-37.22
-27.80
-18.13
-9.15
-1.44
4.81
9.82
13.98
17.66
21.03
24.04
26.47
28.12
28.93
29.08
28.82
28.43
28.10
27.88
27.72
27.54
27.29
27.00
26.65
26.26
25.82
25.27
24.55
23.55
22.20
20.46
18.41
16.14
13.82
11.58
9.51
7.61
5.79
3.92
1.87
-0.45
-3.09
-6.01
-9.14
-12.41
-15.74
-19.12
-22.57
-26.13
-29.88
-33.92
-38.35
-43.10
-47.87
-52.10
-54.99
-55.76
-53.88
-49.29
-42.43
-34.11
-25.24
-16.58
-8.61
-1.48
4.81
10.32
15.08
19.11
22.43
25.10
27.20
28.78
29.90
30.60
30.96
31.13
31.29
31.59
32.12
32.83
33.56
34.11
34.31
34.07
33.43
32.42
31.13
29.58
27.73
25.57
23.09
20.33
17.36
14.28
11.18
8.10
5.04
1.95
-1.22
-4.51
-7.89
-11.25
-14.46
-17.41
-20.08
-22.57
-25.11
-28.00
-31.49
-35.73
-40.62
-45.79
-50.53
-53.96
-55.23
-53.74
-49.37
-42.55
-34.10
-25.02
-16.14
-8.04
-0.90
5.29
10.63
15.20
18.98
21.96
24.14
25.59
26.42
26.74
26.64
26.27
25.77
25.33
25.14
25.34
25.98
26.96
28.14
29.31
30.22
30.60
30.20
28.85
26.54
23.43
19.93
16.49
13.46
10.94
8.73
6.45
3.72
0.36
-3.57
-7.78
-11.93
-15.71
-19.02
-21.88
-24.48
-27.05
-29.91
-33.30
-37.37
-41.99
-46.69
-50.70
-53.11
-53.12
-50.31
-44.76
-37.03
-28.01
-18.66
-9.77
-1.91
4.70
10.10
14.48
18.06
21.02
23.45
25.37
26.76
27.64
28.08
28.23
28.23
28.22
28.29
28.46
28.72
29.02
29.25
29.28
28.97
28.18
26.83
24.98
22.77
20.44
18.19
16.08
14.08
12.04
9.80
7.33
4.67
1.94
-0.77
-3.46
-6.16
-8.92
-11.74
-14.62
-17.48
-20.31
-23.17
-26.15
-29.42
-33.17
-37.50
-42.36
-47.43
-52.01
-55.23
-56.19
-54.28
-49.38
-41.96
-32.89
-23.19
-13.73
-5.09
2.44
8.77
13.89
17.84
20.71
22.64
23.91
24.79
25.49
26.12
26.65
27.01
27.16
27.13
27.05
27.03
27.19
27.50
27.90
28.25
28.34
28.05
27.30
26.06
24.38
22.29
19.88
17.25
14.49
11.73
9.05
6.53
4.19
2.03
-0.01
-2.01
-4.08
-6.32
-8.86
-11.78
-15.07
-18.62
-22.23
-25.70
-28.93
-32.04
-35.34
-39.18
-43.65
-48.44
-52.81
-55.74
-56.31
-53.98
-48.78
-41.25
-32.24
-22.71
-13.47
-5.09
2.13
8.11
12.94
16.78
19.80
22.14
23.87
25.01
25.61
25.75
25.58
25.27
24.97
24.77
24.69
24.70
24.77
24.90
25.06
25.22
25.27
25.08
24.48
23.39
21.83
19.92
17.85
15.76
13.65
11.45
9.02
6.32
3.40
0.40
-2.52
-5.28
-7.88
-10.40
-12.90
-15.36
-17.75
-20.03
-22.27
-24.63
-27.39
-30.79
-34.93
-39.64
-44.51
-48.87
-51.97
-53.15
-51.95
-48.25
-42.25
-34.43
-25.53
-16.31
-7.53
0.24
6.70
11.84
15.87
19.07
21.61
23.57
24.97
25.83
26.30
26.57
26.86
27.24
27.70
28.14
28.50
28.74
28.91
29.04
29.11
29.03
28.61
27.71
26.23
24.17
21.64
18.84
15.98
13.21
10.55
7.92
5.23
2.45
-0.40
-3.25
-6.05
-8.77
-11.47
-14.21
-17.06
-20.08
-23.40
-27.20
-31.67
-36.89
-42.66
-48.44
-53.41
-56.63
-57.35
-55.16
-50.16
-42.92
-34.30
-25.22
-16.38
-8.25
-1.02
5.28
10.64
14.98
18.25
20.47
21.77
22.43
22.79
23.13
23.58
24.18
24.84
25.55
26.31
27.17
28.22
29.48
30.88
32.23
33.24
33.59
33.02
31.45
29.00
26.00
22.81
19.69
16.75
13.95
11.15
8.23
5.14
1.89
-1.47
-4.90
-8.30
-11.61
-14.71
-17.55
-20.20
-22.88
-25.88
-29.52
-33.97
-39.20
-44.85
-50.28
-54.69
-57.24
-57.25
-54.37
-48.65
-40.64
-31.20
-21.41
-12.21
-4.28
2.14
7.24
11.35
14.84
17.85
20.36
22.23
23.35
23.79
23.75
23.52
23.36
23.44
23.84
24.56
25.54
26.67
27.82
28.81
29.50
29.76
29.51
28.72
27.41
25.64
23.50
21.15
18.75
16.43
14.24
12.14
10.02
7.72
5.14
2.19
-1.13
-4.76
-8.58
-12.41
-16.06
-19.42
-22.54
-25.64
-29.17
-33.55
-39.03
-45.46
-52.19
-58.25
-62.58
-64.31
-63.07
-58.98
-52.55
-44.53
-35.68
-26.57
-17.60
-9.00
-0.97
6.35
12.79
18.25
22.67
26.07
28.59
30.42
31.88
33.46
35.64
38.82
43.02
47.84
52.50
56.23
58.56
59.54
59.61
59.31
58.94
58.46
57.55
55.92
53.48
50.40
46.96
43.41
39.80
36.04
31.97
27.52
22.75
17.85
13.03
8.50
4.33
0.48
-3.15
-6.71
-10.28
-13.85
-17.39
-20.85
-24.31
-27.96
-32.03
-36.67
-41.81
-47.02
-51.59
-54.57
-55.14
-52.81
-47.64
-40.22
-31.49
-22.49
-14.08
-6.85
-1.05
3.29
6.25
7.97
8.58
8.27
7.26
5.79
4.16
2.65
1.54
0.97
1.00
1.53
2.40
3.47
4.65
5.86
6.96
7.75
7.93
7.27
5.67
3.31
0.54
-2.20
-4.58
-6.53
-8.21
-9.95
-12.06
-14.69
-17.76
-21.05
-24.27
-27.25
-29.99
-32.69
-35.57
-38.92
-42.91
-47.60
-52.88
-58.35
-63.33
-66.92
-68.19
-66.43
-61.48
-53.71
-44.03
-33.55
-23.30
-13.99
-5.96
0.83
6.60
11.59
15.99
19.82
22.95
25.24
26.62
27.21
27.29
27.17
27.09
27.16
27.33
27.53
27.73
27.97
28.30
28.70
29.03
29.10
28.71
27.82
26.47
24.85
23.11
21.37
19.61
17.75
15.68
13.32
10.69
7.82
4.81
1.70
-1.45
-4.61
-7.73
-10.76
-13.66
-16.52
-19.56
-23.07
-27.35
-32.48
-38.21
-43.94
-48.85
-52.09
-53.01
-51.37
-47.28
-41.17
-33.68
-25.46
-17.09
-9.05
-1.67
4.85
10.41
14.99
18.57
21.19
22.92
23.96
24.59
25.26
26.38
28.24
30.87
33.99
37.11
39.72
41.51
42.41
42.56
42.23
41.54
40.49
38.97
36.83
34.11
30.98
27.77
24.77
22.07
19.60
17.11
14.41
11.39
8.10
4.72
1.34
-1.97
-5.26
-8.63
-12.23
-16.19
-20.64
-25.62
-31.02
-36.47
-41.32
-44.73
-45.92
-44.35
-39.99
-33.28
-25.03
-16.16
-7.56
0.17
6.70
11.96
16.06
19.12
21.28
22.63
23.26
23.31
23.00
22.60
22.30
22.17
22.08
21.88
21.45
20.86
20.34
20.14
20.35
20.85
21.31
21.31
20.56
19.01
16.83
14.35
11.87
9.61
7.62
5.79
3.93
1.78
-0.81
-3.90
-7.39
-11.06
-14.71
-18.22
-21.66
-25.19
-29.05
-33.32
-37.86
-42.28
-45.98
-48.28
-48.61
-46.61
-42.21
-35.65
-27.47
-18.39
-9.19
-0.54
7.11
13.60
18.95
23.31
26.74
29.31
30.99
31.85
32.02
31.71
31.12
30.38
29.54
28.58
27.57
26.60
25.83
25.33
25.07
24.82
24.25
23.11
21.25
18.84
16.13
13.44
10.97
8.72
6.54
4.23
1.64
-1.24
-4.30
-7.41
-10.47
-13.50
-16.58
-19.90
-23.65
-28.04
-33.20
-39.11
-45.43
-51.50
-56.29
-58.73
-57.96
-53.64
-46.14
-36.44
-25.84
-15.57
-6.45
1.21
7.56
12.95
17.67
21.87
25.48
28.40
30.57
32.03
32.90
33.29
33.26
32.85
32.05
30.94
29.71
28.56
27.65
27.05
26.65
26.18
25.36
24.00
22.10
19.87
17.55
15.29
13.13
10.88
8.35
5.36
1.89
-1.99
-6.16
-10.47
-14.78
-18.95
-22.88
-26.52
-29.98
-33.48
-37.31
-41.62
-46.30
-50.85
-54.51
-56.50
-56.21
-53.49
-48.58
-42.09
-34.69
-27.03
-19.56
-12.53
-6.16
-0.60
3.96
7.37
9.58
10.71
11.04
10.96
10.91
11.23
12.11
13.50
15.19
16.94
18.57
20.00
21.24
22.34
23.29
24.03
24.49
24.64
24.55
24.28
23.80
22.95
21.50
19.23
16.09
12.25
8.07
3.95
0.23
-2.89
-5.45
-7.72
-10.13
-13.19
-17.30
-22.60
-28.78
-35.11
-40.56
-44.06
-44.81
-42.46
-37.20
-29.67
-20.76
-11.35
-2.28
5.90
12.84
18.43
22.74
25.94
28.20
29.63
30.27
30.14
29.32
27.99
26.47
25.06
23.95
23.19
22.67
22.25
21.82
21.39
20.93
20.40
19.65
18.48
16.78
14.59
12.03
9.28
6.41
3.36
0.06
-3.47
-7.02
-10.30
-13.08
-15.39
-17.53
-19.98
-23.17
-27.28
-32.20
-37.55
-42.79
-47.24
-50.18
-50.89
-48.78
-43.61
-35.65
-25.72
-14.95
-4.52
4.66
12.14
17.91
22.26
25.54
28.02
29.87
31.16
31.93
32.20
31.98
31.27
30.14
28.70
27.16
25.78
24.77
24.20
23.92
23.59
22.86
21.45
19.37
16.81
14.07
11.40
8.88
6.45
4.01
1.47
-1.23
-4.14
-7.30
-10.72
-14.33
-17.94
-21.36
-24.49
-27.44
-30.51
-34.00
-38.00
-42.21
-45.93
-48.31
-48.56
-46.27
-41.42
-34.39
-25.87
-16.63
-7.45
1.06
8.41
14.37
18.94
22.25
24.56
26.04
26.85
27.05
26.70
25.95
25.00
24.10
23.43
23.01
22.74
22.43
21.91
21.17
20.23
19.14
17.85
16.27
14.35
12.08
9.61
7.14
4.81
2.60
0.39
-2.04
-4.81
-7.85
-11.00
-14.06
-16.95
-19.74
-22.68
-26.01
-29.90
-34.35
-39.07
-43.57
-47.15
-49.04
-48.58
-45.38
-39.52
-31.51
-22.27
-12.78
-3.91
3.77
9.99
14.76
18.30
20.85
22.70
24.04
24.96
25.41
25.32
24.70
23.68
22.57
21.67
21.22
21.23
21.60
22.12
22.64
23.00
23.05
22.56
21.32
19.23
16.39
13.10
9.76
6.69
3.99
1.52
-0.96
-3.69
-6.78
-10.22
-13.84
-17.48
-20.94
-24.08
-26.86
-29.43
-32.06
-35.17
-39.02
-43.61
-48.48
-52.80
-55.59
-55.99
-53.52
-48.26
-40.66
-31.54
-21.81
-12.35
-3.81
3.45
9.42
14.34
18.49
22.07
25.09
27.43
29.02
29.84
30.02
29.70
29.04
28.13
27.08
26.09
25.37
25.05
25.18
25.60
26.08
26.37
26.19
25.33
23.61
20.94
17.45
13.47
9.44
5.77
2.65
0.00
-2.39
-4.77
-7.24
-9.74
-12.20
-14.48
-16.59
-18.53
-20.36
-22.14
-24.04
-26.31
-29.13
-32.57
-36.39
-40.00
-42.60
-43.34
-41.61
-37.14
-30.09
-20.96
-10.51
0.30
10.39
18.76
24.65
27.74
28.22
26.75
24.21
21.44
18.99
17.09
15.73
14.72
13.92
13.23
12.58
11.95
11.29
10.56
9.75
8.91
8.10
7.39
6.82
6.36
5.97
5.56
5.08
4.53
3.94
3.37
2.89
2.52
2.26
2.06
1.88
1.66
1.39
1.10
0.81
0.56
0.39
0.28
0.20
0.14
0.07
-0.03
-0.14
-0.25
-0.34
-0.39
-0.41
-0.39
-0.37
-0.34
-0.31
-0.30
-0.29
-0.29
-0.29
-0.29
-0.29
-0.29
-0.29
-0.29
-0.29
-0.29
-0.29
-0.29
-0.29
-0.29
-0.29
-0.29
-0.28
-0.28
-0.29
-0.28
-0.28
-0.28
-0.28
-0.28
-0.28
-0.28
-0.28
-0.28
-0.28
-0.28
-0.28
-0.28
-0.28
-0.27
-0.27
-0.27
-0.27
-0.27
-0.27
-0.27
-0.27
-0.27
-0.27
-0.27
-0.27
-0.27
-0.27
-0.27
-0.27
-0.27
-0.27
-0.27
-0.27
-0.26
-0.26
-0.26
-0.26
-0.26
-0.26
-0.26
-0.26
-0.26
-0.26
-0.26
-0.26
-0.26
-0.26
-0.26
-0.26
-0.26
-0.26
-0.26
-0.25
-0.25
-0.25
-0.25
-0.25
-0.25
-0.25
-0.25
-0.25
-0.25
-0.25
-0.25
-0.25
-0.25
-0.25
-0.25
-0.25
-0.25
-0.25
-0.25
-0.24
-0.25
-0.25
-0.24
-0.24
-0.24
-0.24
-0.24
-0.24
-0.24
-0.24
-0.24
-0.24
-0.24
-0.24
-0.24
-0.24
-0.24
-0.24
-0.24
-0.24
-0.24
-0.24
-0.24
-0.24
-0.23
-0.23
-0.23
-0.23
-0.23
-0.23
-0.23
-0.23
-0.23
-0.23
-0.23
-0.23
-0.23
-0.23
-0.23
-0.23
-0.23
-0.23
-0.23
-0.23
-0.23
-0.21
-0.19
-0.16
-0.13
-0.11
-0.09
-0.07
-0.05
-0.03
0.01
0.06
0.11
0.17
0.21
0.26
0.30
0.35
0.42
0.50
0.60
0.69
0.77
0.82
0.85
0.87
0.91
0.99
1.14
1.34
1.57
1.79
1.97
2.11
2.23
2.40
2.67
3.06
3.56
4.11
4.63
5.07
5.42
5.74
6.13
6.68
7.41
8.29
9.22
10.10
10.85
11.47
12.04
12.65
13.40
14.32
15.44
16.78
18.29
19.88
21.24
22.00
21.76
20.32
17.77
14.48
10.93
7.48
4.28
1.27
-1.70
-4.70
-7.69
-10.62
-13.57
-16.75
-20.43
-24.82
-29.80
-34.95
-39.55
-42.81
-44.08
-42.96
-39.44
-33.88
-26.93
-19.35
-11.81
-4.78
1.55
7.14
11.96
15.94
18.93
20.78
21.53
21.33
20.42
19.10
17.61
16.11
14.76
13.72
13.14
13.07
13.40
13.83
14.00
13.57
12.39
10.49
8.10
5.50
2.94
0.58
-1.58
-3.61
-5.61
-7.73
-10.05
-12.59
-15.29
-18.02
-20.61
-22.94
-25.02
-27.02
-29.25
-32.03
-35.51
-39.54
-43.59
-46.94
-48.84
-48.67
-46.16
-41.39
-34.77
-26.95
-18.66
-10.58
-3.19
3.24
8.67
13.12
16.61
19.12
20.69
21.37
21.41
21.09
20.71
20.40
20.10
19.68
19.03
18.18
17.28
16.58
16.25
16.29
16.56
16.81
16.74
16.20
15.12
13.59
11.79
9.85
7.83
5.72
3.44
0.90
-1.93
-4.97
-8.10
-11.15
-13.96
-16.43
-18.60
-20.67
-22.95
-25.81
-29.50
-34.07
-39.19
-44.25
-48.46
-50.98
-51.23
-48.91
-44.12
-37.33
-29.19
-20.44
-11.73
-3.52
3.92
10.42
15.91
20.31
23.63
25.96
27.46
28.35
28.80
28.92
28.72
28.24
27.57
26.83
26.19
25.73
25.39
25.09
24.68
24.11
23.32
22.31
21.02
19.34
17.20
14.62
11.73
8.79
6.06
3.75
1.85
0.23
-1.32
-3.02
-4.96
-7.11
-9.35
-11.55
-13.63
-15.64
-17.73
-20.20
-23.31
-27.25
-31.99
-37.24
-42.43
-46.82
-49.59
-50.02
-47.72
-42.73
-35.54
-26.96
-17.88
-9.03
-0.87
6.44
12.92
18.57
23.36
27.25
30.19
32.19
33.27
33.50
32.91
31.66
30.01
28.26
26.80
25.78
25.25
25.05
25.05
25.16
25.37
25.65
25.79
25.50
24.47
22.60
20.05
17.23
14.52
12.18
10.19
8.30
6.25
3.86
1.11
-1.94
-5.19
-8.60
-12.07
-15.53
-18.83
-21.90
-24.79
-27.72
-31.01
-34.92
-39.46
-44.28
-48.71
-51.90
-53.12
-51.90
-48.17
-42.22
-34.63
-26.10
-17.29
-8.78
-0.94
5.95
11.70
16.14
19.19
20.86
21.32
20.93
20.11
19.27
18.66
18.38
18.37
18.59
19.02
19.70
20.68
21.90
23.17
24.21
24.69
24.44
23.42
21.76
19.63
17.18
14.53
11.75
8.95
6.20
3.56
0.96
-1.72
-4.60
-7.70
-10.92
-14.06
-16.96
-19.65
-22.38
-25.54
-29.37
-33.86
-38.60
-42.86
-45.79
-46.67
-45.04
-40.84
-34.39
-26.30
-17.36
-8.36
0.04
7.40
13.52
18.44
22.34
25.38
27.67
29.27
30.12
30.26
29.76
28.81
27.66
26.58
25.76
25.28
25.12
25.14
25.25
25.32
25.26
25.02
24.50
23.59
22.14
20.09
17.42
14.34
11.14
8.16
5.66
3.64
1.94
0.25
-1.71
-4.10
-6.87
-9.86
-12.83
-15.63
-18.19
-20.55
-22.81
-25.13
-27.66
-30.55
-33.89
-37.66
-41.66
-45.43
-48.30
-49.55
-48.56
-45.09
-39.27
-31.70
-23.18
-14.51
-6.38
0.82
6.95
12.03
16.19
19.52
22.09
23.92
25.00
25.38
25.16
24.50
23.62
22.72
22.01
21.64
21.71
22.20
23.03
23.98
24.78
25.12
24.75
23.53
21.50
18.86
15.95
13.08
10.45
8.06
5.71
3.13
0.20
-3.02
-6.29
-9.31
-11.89
-14.05
-15.97
-17.89
-19.99
-22.37
-25.07
-28.18
-31.75
-35.70
-39.71
-43.09
-44.97
-44.55
-41.41
-35.69
-28.07
-19.50
-10.89
-2.87
4.29
10.55
15.99
20.60
24.26
26.89
28.47
29.18
29.34
29.22
29.00
28.67
28.17
27.46
26.63
25.85
25.31
25.09
25.08
25.06
24.79
24.09
22.93
21.34
19.41
17.19
14.79
12.29
9.79
7.39
5.11
2.95
0.81
-1.37
-3.65
-6.00
-8.35
-10.57
-12.57
-14.35
-16.04
-17.92
-20.26
-23.30
-26.95
-30.86
-34.37
-36.73
-37.27
-35.60
-31.70
-25.96
-19.05
-11.73
-4.63
1.81
7.49
12.45
16.80
20.57
23.69
26.06
27.57
28.20
28.00
27.09
25.69
24.02
22.39
21.06
20.21
19.84
19.77
19.75
19.57
19.14
18.50
17.71
16.78
15.67
14.31
12.70
10.91
9.09
7.37
5.79
4.31
2.78
1.03
-1.05
-3.45
-6.12
-8.95
-11.83
-14.66
-17.40
-20.08
-22.75
-25.53
-28.56
-32.00
-35.96
-40.45
-45.29
-50.08
-54.18
-56.86
-57.49
-55.68
-51.46
-45.28
-37.82
-29.86
-21.97
-14.49
-7.53
-1.19
4.47
9.25
12.98
15.62
17.30
18.39
19.28
20.31
21.63
23.21
24.84
26.29
27.38
28.01
28.17
27.86
27.00
25.49
23.25
20.36
17.16
14.12
11.65
9.94
8.82
7.93
6.88
5.49
3.77
1.91
0.03
-1.88
-3.94
-6.27
-8.87
-11.69
-14.69
-17.94
-21.66
-26.09
-31.31
-37.06
-42.70
-47.28
-49.83
-49.58
-46.21
-40.00
-31.69
-22.27
-12.72
-3.80
4.07
10.75
16.24
20.65
24.07
26.59
28.32
29.38
29.94
30.14
30.15
30.15
30.32
30.75
31.45
32.28
33.03
33.44
33.38
32.84
31.94
30.89
29.85
28.88
27.91
26.82
25.46
23.76
21.76
19.59
17.35
15.08
12.75
10.28
7.68
5.01
2.43
0.06
-2.11
-4.26
-6.67
-9.63
-13.28
-17.57
-22.30
-27.20
-32.11
-36.90
-41.43
-45.46
-48.52
-50.01
-49.34
-46.23
-40.78
-33.56
-25.38
-17.12
-9.45
-2.76
2.87
7.50
11.19
13.98
15.83
16.75
16.87
16.39
15.66
14.98
14.55
14.40
14.42
14.46
14.45
14.42
14.50
14.79
15.28
15.78
15.99
15.58
14.35
12.32
9.70
6.74
3.71
0.77
-2.03
-4.65
-7.06
-9.18
-10.90
-12.15
-12.91
-13.23
-13.28
-13.33
-13.72
-14.81
-16.97
-20.35
-24.84
-29.99
-34.99
-38.78
-40.35
-38.94
-34.35
-27.05
-18.09
-8.79
-0.38
6.41
11.41
14.97
17.65
19.92
21.98
23.85
25.43
26.68
27.67
28.45
29.06
29.40
29.37
28.99
28.41
27.90
27.69
27.78
27.97
27.88
27.16
25.68
23.50
20.87
18.08
15.36
12.92
10.88
9.27
8.01
6.85
5.44
3.43
0.67
-2.68
-6.28
-9.69
-12.66
-15.19
-17.57
-20.18
-23.39
-27.35
-31.99
-36.99
-41.80
-45.72
-47.93
-47.76
-44.87
-39.43
-32.07
-23.79
-15.59
-8.23
-2.07
2.90
6.93
10.30
13.22
15.76
17.92
19.69
21.02
21.88
22.28
22.29
21.95
21.35
20.50
19.39
17.99
16.23
14.14
11.74
9.14
6.48
3.89
1.41
-1.02
-3.54
-6.35
-9.54
-13.03
-16.57
-19.75
-22.25
-23.98
-25.09
-25.99
-27.15
-28.93
-31.54
-34.88
-38.58
-42.04
-44.45
-45.05
-43.26
-38.99
-32.53
-24.55
-15.92
-7.39
0.46
7.28
12.90
17.26
20.38
22.33
23.23
23.23
22.48
21.16
19.50
17.77
16.36
15.64
15.90
17.17
19.21
21.51
23.46
24.45
24.13
22.44
19.64
16.17
12.58
9.23
6.32
3.81
1.55
-0.61
-2.81
-5.11
-7.55
-10.18
-13.08
-16.38
-20.19
-24.61
-29.58
-34.90
-40.17
-44.79
-48.01
-49.13
-47.65
-43.45
-36.85
-28.56
-19.46
-10.41
-2.10
5.09
11.03
15.79
19.50
22.30
24.30
25.67
26.60
27.28
27.84
28.27
28.42
28.12
27.31
26.07
24.66
23.34
22.25
21.36
20.50
19.45
18.09
16.40
14.47
12.47
10.48
8.56
6.61
4.47
1.98
-0.97
-4.33
-7.96
-11.58
-14.97
-18.07
-21.01
-24.10
-27.64
-31.77
-36.32
-40.80
-44.51
-46.70
-46.78
-44.45
-39.78
-33.16
-25.18
-16.56
-7.96
0.06
7.10
12.97
17.62
21.11
23.54
25.01
25.67
25.66
25.18
24.42
23.56
22.74
22.02
21.47
21.11
20.93
20.89
20.87
20.71
20.23
19.30
17.88
16.06
13.99
11.82
9.63
7.39
5.06
2.61
0.03
-2.64
-5.33
-7.97
-10.50
-12.89
-15.17
-17.44
-19.89
-22.78
-26.31
-30.48
-35.01
-39.26
-42.38
-43.49
-42.01
-37.82
-31.31
-23.25
-14.61
-6.25
1.21
7.48
12.54
16.51
19.57
21.90
23.64
24.87
25.64
25.97
25.87
25.38
24.62
23.75
22.94
22.37
22.14
22.24
22.55
22.86
22.91
22.48
21.42
19.70
17.39
14.60
11.46
8.10
4.58
1.00
-2.61
-6.22
-9.78
-13.23
-16.51
-19.55
-22.33
-24.94
-27.65
-30.80
-34.62
-39.10
-43.82
-47.99
-50.67
-50.99
-48.45
-43.07
-35.38
-26.26
-16.70
-7.54
0.67
7.73
13.66
18.57
22.51
25.54
27.62
28.81
29.27
29.20
28.84
28.31
27.66
26.90
26.07
25.27
24.67
24.41
24.47
24.71
24.78
24.33
23.10
20.99
18.12
14.75
11.25
7.92
5.03
2.67
0.79
-0.79
-2.36
-4.18
-6.46
-9.25
-12.40
-15.67
-18.84
-21.74
-24.40
-27.00
-29.79
-32.98
-36.62
-40.50
-44.13
-46.84
-47.88
-46.64
-42.79
-36.36
-27.87
-18.12
-8.08
1.34
9.49
16.02
20.91
24.33
26.55
27.85
28.46
28.56
28.25
27.64
26.82
25.86
24.88
23.99
23.34
23.03
23.14
23.62
24.33
25.06
25.55
25.63
25.21
24.31
23.01
21.40
19.55
17.48
15.21
12.78
10.21
7.61
5.03
2.53
0.15
-2.15
-4.43
-6.80
-9.36
-12.18
-15.19
-18.24
-21.19
-23.88
-26.31
-28.64
-31.15
-34.12
-37.71
-41.82
-46.01
-49.58
-51.70
-51.66
-49.00
-43.75
-36.29
-27.42
-18.00
-8.90
-0.76
6.08
11.59
15.97
19.46
22.32
24.67
26.54
27.88
28.67
28.94
28.81
28.45
28.03
27.67
27.42
27.30
27.26
27.22
27.11
26.79
26.18
25.18
23.79
22.08
20.15
18.12
16.03
13.86
11.59
9.21
6.82
4.53
2.44
0.56
-1.20
-2.99
-4.89
-6.95
-9.12
-11.36
-13.66
-16.05
-18.60
-21.37
-24.39
-27.68
-31.25
-35.08
-39.07
-42.97
-46.32
-48.56
-49.04
-47.32
-43.21
-36.94
-29.08
-20.46
-11.90
-4.04
2.73
8.32
12.84
16.42
19.19
21.20
22.52
23.22
23.43
23.37
23.25
23.19
23.22
23.27
23.23
23.07
22.80
22.55
22.41
22.44
22.54
22.53
22.20
21.37
19.98
18.07
15.75
13.16
10.49
7.92
5.57
3.56
1.84
0.23
-1.55
-3.77
-6.56
-9.83
-13.31
-16.64
-19.56
-22.00
-24.16
-26.34
-28.87
-31.93
-35.52
-39.39
-43.12
-46.18
-48.06
-48.31
-46.62
-42.93
-37.39
-30.41
-22.59
-14.63
-7.14
-0.57
4.83
9.05
12.24
14.62
16.40
17.78
18.91
19.88
20.74
21.47
22.03
22.37
22.51
22.56
22.64
22.85
23.18
23.49
23.62
23.43
22.84
21.90
20.68
19.24
17.58
15.69
13.53
11.19
8.77
6.42
4.22
2.19
0.23
-1.79
-3.98
-6.37
-8.86
-11.30
-13.54
-15.50
-17.17
-18.70
-20.37
-22.47
-25.27
-28.80
-32.86
-36.87
-40.03
-41.51
-40.66
-37.26
-31.56
-24.24
-16.10
-7.96
-0.39
6.25
11.78
16.13
19.33
21.42
22.54
22.87
22.61
21.92
20.94
19.77
18.54
17.38
16.47
15.94
15.82
16.03
16.40
16.77
17.04
17.14
17.05
16.67
15.90
14.63
12.91
10.88
8.82
6.89
5.09
3.24
1.05
-1.65
-4.85
-8.28
-11.56
-14.39
-16.61
-18.31
-19.74
-21.24
-23.11
-25.55
-28.63
-32.20
-35.96
-39.41
-41.91
-42.81
-41.57
-37.95
-32.08
-24.53
-16.12
-7.77
-0.22
6.14
11.27
15.37
18.78
21.69
24.12
25.98
27.18
27.68
27.58
27.07
26.36
25.59
24.86
24.22
23.71
23.41
23.35
23.54
23.88
24.17
24.20
23.77
22.76
21.17
19.09
16.67
14.08
11.55
9.19
7.09
5.20
3.38
1.47
-0.67
-3.04
-5.60
-8.24
-10.87
-13.46
-16.00
-18.57
-21.27
-24.25
-27.68
-31.68
-36.22
-41.03
-45.56
-49.06
-50.79
-50.19
-47.06
-41.57
-34.22
-25.70
-16.75
-8.11
-0.33
6.23
11.41
15.27
17.95
19.72
20.83
21.48
21.81
21.94
21.96
21.95
21.97
22.10
22.36
22.76
23.26
23.78
24.25
24.54
24.54
24.14
23.26
21.93
20.24
18.31
16.29
14.23
12.15
9.99
7.76
5.51
3.30
1.21
-0.76
-2.67
-4.65
-6.84
-9.26
-11.85
-14.50
-17.12
-19.67
-22.23
-24.92
-27.91
-31.33
-35.23
-39.53
-43.94
-47.98
-50.98
-52.18
-50.99
-47.16
-40.97
-33.15
-24.68
-16.49
-9.20
-3.03
2.10
6.39
9.95
12.83
14.97
16.42
17.26
17.67
17.81
17.82
17.72
17.51
17.22
16.86
16.53
16.37
16.51
16.99
17.72
18.48
18.91
18.72
17.74
16.06
13.97
11.82
9.86
8.18
6.68
5.17
3.52
1.68
-0.35
-2.55
-4.93
-7.55
-10.45
-13.58
-16.90
-20.36
-24.05
-28.10
-32.60
-37.41
-41.94
-45.36
-46.70
-45.26
-40.88
-33.95
-25.29
-15.90
-6.64
1.84
9.15
15.09
19.61
22.77
24.71
25.73
26.16
26.39
26.69
27.21
27.91
28.63
29.16
29.29
29.02
28.43
27.72
27.08
26.57
26.14
25.64
24.96
24.06
23.02
21.87
20.61
19.13
17.26
14.92
12.17
9.27
6.49
4.01
1.79
-0.37
-2.79
-5.64
-8.94
-12.49
-15.99
-19.14
-21.76
-23.87
-25.66
-27.43
-29.54
-32.22
-35.57
-39.42
-43.32
-46.62
-48.54
-48.43
-45.84
-40.78
-33.67
-25.23
-16.37
-7.87
-0.31
6.00
11.04
14.95
17.99
20.44
22.50
24.24
25.65
26.58
26.93
26.67
25.92
24.94
24.04
23.49
23.43
23.86
24.61
25.43
26.03
26.16
25.68
24.62
23.13
21.39
19.61
17.92
16.38
14.97
13.62
12.24
10.68
8.86
6.69
4.16
1.31
-1.82
-5.17
-8.70
-12.36
-16.02
-19.52
-22.70
-25.45
-27.81
-30.00
-32.35
-35.12
-38.46
-42.24
-46.05
-49.25
-51.10
-50.96
-48.44
-43.50
-36.54
-28.23
-19.40
-10.79
-2.99
3.70
9.18
13.51
16.83
19.30
21.08
22.34
23.26
23.95
24.50
24.91
25.12
25.12
24.93
24.65
24.41
24.35
24.45
24.69
24.92
25.00
24.83
24.31
23.38
22.01
20.20
18.04
15.70
13.39
11.23
9.30
7.52
5.77
3.98
2.12
0.21
-1.72
-3.63
-5.54
-7.37
-9.03
-10.39
-11.45
-12.32
-13.34
-14.89
-17.24
-20.38
-23.89
-27.10
-29.23
-29.68
-28.15
-24.73
-19.85
-14.05
-7.93
-2.00
3.37
8.00
11.75
14.63
16.69
18.05
18.85
19.24
19.33
19.17
18.75
18.06
17.10
16.03
15.00
14.22
13.79
13.78
14.16
14.90
15.90
17.04
18.09
18.74
18.75
17.98
16.54
14.74
12.91
11.34
10.10
9.07
8.01
6.75
5.15
3.21
1.01
-1.34
-3.72
-6.00
-8.12
-10.11
-12.06
-14.20
-16.71
-19.71
-23.06
-26.38
-29.01
-30.19
-29.27
-25.91
-20.24
-12.84
-4.57
3.63
11.01
17.11
21.77
25.04
27.08
27.98
27.85
26.77
24.93
22.61
20.16
17.84
15.79
14.01
12.44
11.02
9.81
8.88
8.25
7.89
7.62
7.25
6.66
5.80
4.72
3.45
2.00
0.35
-1.49
-3.48
-5.52
-7.59
-9.68
-11.84
-14.11
-16.46
-18.81
-21.09
-23.33
-25.66
-28.28
-31.31
-34.67
-38.01
-40.73
-42.13
-41.56
-38.69
-33.57
-26.72
-18.92
-11.03
-3.75
2.54
7.70
11.79
14.87
16.92
17.97
18.08
17.48
16.49
15.43
14.50
13.74
13.14
12.67
12.36
12.25
12.29
12.31
12.08
11.38
10.18
8.67
7.10
5.69
4.41
3.06
1.35
-0.90
-3.67
-6.75
-9.85
-12.77
-15.49
-18.10
-20.80
-23.73
-26.99
-30.62
-34.57
-38.69
-42.63
-45.78
-47.40
-46.77
-43.41
-37.39
-29.34
-20.24
-11.19
-3.05
3.78
9.29
13.72
17.36
20.36
22.71
24.32
25.13
25.19
24.71
23.96
23.23
22.66
22.24
21.83
21.23
20.33
19.13
17.75
16.33
14.90
13.43
11.75
9.78
7.46
4.88
2.15
-0.60
-3.37
-6.16
-9.04
-12.04
-15.13
-18.29
-21.54
-24.95
-28.71
-32.94
-37.65
-42.52
-46.93
-49.98
-50.78
-48.76
-43.86
-36.60
-27.89
-18.79
-10.14
-2.48
3.98
9.27
13.48
16.73
19.10
20.68
21.59
21.93
21.82
21.40
20.74
19.94
19.11
18.33
17.68
17.21
16.93
16.81
16.73
16.56
16.14
15.35
14.12
12.48
10.50
8.24
5.78
3.13
0.30
-2.65
-5.62
-8.51
-11.25
-13.93
-16.74
-19.90
-23.47
-27.31
-30.97
-33.80
-35.18
-34.61
-31.93
-27.26
-21.05
-13.87
-6.36
0.88
7.37
12.81
17.06
20.12
22.14
23.27
23.66
23.41
22.61
21.37
19.86
18.33
17.04
16.16
15.71
15.60
15.62
15.55
15.21
14.45
13.20
11.48
9.36
6.99
4.55
2.12
-0.32
-2.87
-5.68
-8.78
-12.08
-15.38
-18.47
-21.29
-23.93
-26.65
-29.72
-33.39
-37.70
-42.51
-47.42
-51.79
-54.87
-55.98
-54.61
-50.68
-44.51
-36.75
-28.17
-19.47
-11.07
-3.14
4.32
11.34
17.81
23.56
28.33
32.01
34.54
36.00
36.51
36.24
35.34
34.06
32.67
31.48
30.71
30.45
30.67
31.21
31.83
32.27
32.21
31.35
29.48
26.58
22.89
18.86
14.94
11.48
8.53
5.90
3.26
0.35
-2.92
-6.45
-10.01
-13.38
-16.46
-19.35
-22.33
-25.76
-29.98
-35.09
-40.82
-46.53
-51.32
-54.25
-54.61
-52.09
-46.82
-39.30
-30.28
-20.53
-10.78
-1.58
6.73
13.99
20.19
25.44
29.79
33.32
36.03
37.88
38.87
39.02
38.50
37.50
36.26
35.02
33.89
32.96
32.21
31.66
31.31
31.17
31.18
31.20
31.00
30.34
29.15
27.46
25.45
23.29
21.06
18.78
16.37
13.79
11.06
8.23
5.37
2.49
-0.46
-3.51
-6.62
-9.73
-12.77
-15.79
-18.95
-22.46
-26.53
-31.19
-36.22
-41.18
-45.42
-48.21
-48.89
-47.00
-42.38
-35.34
-26.49
-16.70
-6.84
2.42
10.68
17.79
23.73
28.49
32.00
34.21
35.13
34.91
33.86
32.35
30.71
29.14
27.68
26.35
25.15
24.12
23.37
22.94
22.80
22.82
22.78
22.49
21.82
20.76
19.38
17.80
16.13
14.37
12.48
10.44
8.22
5.89
3.55
1.28
-0.92
-3.11
-5.39
-7.84
-10.50
-13.30
-16.09
-18.74
-21.12
-23.23
-25.23
-27.42
-30.14
-33.61
-37.82
-42.38
-46.62
-49.70
-50.88
-49.73
-46.21
-40.69
-33.74
-26.04
-18.18
-10.61
-3.61
2.65
8.07
12.61
16.28
19.13
21.23
22.68
23.51
23.72
23.37
22.55
21.52
20.49
19.71
19.25
19.07
19.06
19.06
19.00
18.84
18.53
17.93
16.91
15.33
13.18
10.63
7.98
5.56
3.57
2.01
0.69
-0.66
-2.27
-4.25
-6.50
-8.79
-10.91
-12.73
-14.26
-15.63
-17.02
-18.58
-20.40
-22.52
-25.01
-27.91
-31.22
-34.74
-38.04
-40.43
-41.18
-39.69
-35.80
-29.80
-22.39
-14.44
-6.71
0.27
6.32
11.39
15.47
18.49
20.39
21.11
20.85
19.88
18.58
17.29
16.22
15.42
14.85
14.43
14.11
13.87
13.75
13.78
13.98
14.32
14.65
14.82
14.62
13.90
12.69
11.09
9.28
7.44
5.61
3.71
1.62
-0.76
-3.41
-6.17
-8.82
-11.17
-13.18
-14.99
-16.88
-19.17
-22.11
-25.80
-30.03
-34.30
-37.85
-39.85
-39.63
-36.92
-31.91
-25.20
-17.60
-9.78
-2.27
4.65
10.85
16.20
20.57
23.86
26.03
27.13
27.32
26.82
25.85
24.67
23.52
22.64
22.21
22.29
22.74
23.33
23.81
24.00
23.85
23.39
22.62
21.46
19.81
17.58
14.84
11.79
8.74
5.91
3.36
1.00
-1.37
-3.91
-6.69
-9.64
-12.63
-15.58
-18.43
-21.18
-23.85
-26.46
-29.10
-31.91
-35.15
-39.00
-43.40
-47.93
-51.75
-53.85
-53.42
-50.12
-44.21
-36.46
-27.81
-19.09
-10.83
-3.30
3.37
9.10
13.78
17.35
19.89
21.57
22.61
23.19
23.34
23.05
22.28
21.08
19.65
18.22
17.04
16.26
15.88
15.81
15.86
15.85
15.62
15.04
14.06
12.70
11.03
9.21
7.34
5.51
3.76
2.12
0.55
-0.94
-2.39
-3.88
-5.51
-7.42
-9.67
-12.26
-15.05
-17.89
-20.63
-23.27
-25.95
-28.93
-32.38
-36.31
-40.41
-44.06
-46.51
-47.03
-45.18
-40.90
-34.51
-26.62
-17.98
-9.36
-1.38
5.48
11.07
15.45
18.84
21.49
23.57
25.15
26.18
26.66
26.64
26.22
25.54
24.69
23.76
22.81
21.93
21.19
20.64
20.27
19.98
19.63
19.10
18.30
17.15
15.61
13.67
11.40
8.95
6.56
4.39
2.51
0.85
-0.81
-2.69
-4.93
-7.56
-10.47
-13.49
-16.45
-19.19
-21.63
-23.73
-25.63
-27.59
-29.96
-33.04
-36.86
-41.04
-44.83
-47.32
-47.72
-45.65
-41.19
-34.84
-27.27
-19.16
-11.04
-3.35
3.59
9.54
14.39
18.16
21.01
23.22
24.98
26.35
27.33
27.82
27.79
27.30
26.56
25.78
25.16
24.79
24.63
24.55
24.36
23.93
23.17
22.09
20.77
19.27
17.64
15.92
14.09
12.12
10.02
7.80
5.49
3.16
0.77
-1.70
-4.31
-7.13
-10.11
-13.11
-15.95
-18.55
-20.92
-23.27
-25.84
-28.90
-32.51
-36.61
-40.92
-45.01
-48.36
-50.37
-50.52
-48.49
-44.24
-38.06
-30.55
-22.39
-14.25
-6.60
0.27
6.25
11.33
15.56
19.00
21.75
23.88
25.45
26.51
27.09
27.25
27.05
26.63
26.12
25.67
25.37
25.26
25.31
25.44
25.58
25.64
25.56
25.22
24.49
23.19
21.26
18.77
15.91
12.98
10.19
7.67
5.32
3.00
0.53
-2.20
-5.21
-8.43
-11.75
-15.05
-18.16
-20.98
-23.44
-25.64
-27.79
-30.20
-33.14
-36.69
-40.68
-44.57
-47.65
-49.12
-48.39
-45.18
-39.67
-32.41
-24.15
-15.68
-7.59
-0.25
6.25
11.91
16.83
21.03
24.51
27.24
29.24
30.57
31.31
31.55
31.34
30.73
29.76
28.60
27.47
26.59
26.15
26.12
26.39
26.68
26.75
26.39
25.51
24.13
22.28
20.07
17.58
14.97
12.37
9.90
7.60
5.44
3.29
1.00
-1.51
-4.25
-7.14
-10.09
-13.04
-15.97
-18.88
-21.77
-24.65
-27.59
-30.79
-34.49
-38.83
-43.68
-48.51
-52.51
-54.76
-54.62
-51.88
-46.80
-39.92
-31.90
-23.31
-14.66
-6.42
1.02
7.36
12.49
16.55
19.79
22.42
24.50
25.92
26.57
26.49
25.91
25.20
24.67
24.47
24.55
24.78
25.10
25.53
26.11
26.78
27.37
27.60
27.26
26.28
24.74
22.82
20.68
18.46
16.24
14.04
11.89
9.75
7.56
5.24
2.66
-0.25
-3.50
-7.04
-10.78
-14.57
-18.29
-21.90
-25.38
-28.86
-32.53
-36.54
-40.95
-45.54
-49.73
-52.74
-53.70
-52.01
-47.53
-40.65
-32.18
-23.06
-14.18
-6.13
0.78
6.48
11.02
14.53
17.14
19.01
20.29
21.12
21.61
21.85
21.93
21.91
21.83
21.70
21.55
21.38
21.25
21.19
21.22
21.30
21.35
21.27
20.95
20.33
19.41
18.25
16.92
15.48
14.00
12.50
11.01
9.55
8.11
6.64
4.98
2.96
0.43
-2.65
-6.10
-9.61
-12.86
-15.64
-18.03
-20.36
-23.08
-26.54
-30.78
-35.42
-39.77
-42.93
-44.09
-42.76
-38.90
-32.86
-25.31
-17.06
-8.88
-1.36
5.12
10.44
14.67
17.98
20.56
22.53
23.93
24.81
25.19
25.15
24.77
24.19
23.49
22.79
22.16
21.63
21.24
21.00
20.88
20.81
20.65
20.18
19.20
17.63
15.49
13.00
10.46
8.13
6.14
4.42
2.73
0.80
-1.58
-4.45
-7.73
-11.21
-14.69
-17.98
-21.04
-23.98
-26.98
-30.26
-33.94
-37.97
-42.04
-45.65
-48.11
-48.72
-46.97
-42.65
-36.02
-27.73
-18.70
-9.81
-1.74
5.17
10.89
15.56
19.32
22.26
24.47
26.04
27.13
27.88
28.35
28.55
28.40
27.89
27.19
26.50
26.06
25.95
26.06
26.16
26.02
25.53
24.74
23.75
22.66
21.44
20.03
18.36
16.45
14.40
12.29
10.13
7.86
5.40
2.73
-0.12
-3.02
-5.86
-8.59
-11.25
-13.87
-16.48
-19.10
-21.71
-24.40
-27.35
-30.76
-34.67
-38.89
-42.85
-45.75
-46.76
-45.28
-41.18
-34.81
-26.89
-18.29
-9.80
-1.96
4.90
10.65
15.31
18.97
21.77
23.80
25.14
25.79
25.81
25.34
24.64
24.02
23.74
23.89
24.43
25.16
25.91
26.50
26.83
26.82
26.37
25.43
23.99
22.13
19.98
17.63
15.14
12.49
9.68
6.81
4.01
1.41
-0.96
-3.17
-5.40
-7.76
-10.20
-12.58
-14.67
-16.37
-17.74
-19.03
-20.60
-22.80
-25.85
-29.79
-34.39
-39.11
-43.14
-45.56
-45.55
-42.63
-36.93
-29.06
-20.06
-10.99
-2.67
4.47
10.37
15.19
19.17
22.49
25.20
27.30
28.79
29.63
29.83
29.43
28.54
27.33
26.07
25.01
24.32
24.02
24.01
24.11
24.17
24.06
23.74
23.17
22.28
20.98
19.29
17.27
15.11
13.00
11.05
9.21
7.38
5.36
3.09
0.54
-2.25
-5.20
-8.24
-11.27
-14.20
-16.85
-19.18
-21.25
-23.32
-25.71
-28.68
-32.31
-36.40
-40.49
-43.89
-45.89
-45.83
-43.29
-38.26
-31.16
-22.79
-14.16
-6.16
0.63
6.06
10.32
13.72
16.50
18.74
20.40
21.41
21.78
21.64
21.15
20.49
19.76
19.02
18.31
17.69
17.28
17.12
17.24
17.54
17.81
17.83
17.37
16.32
14.72
12.72
10.53
8.36
6.28
4.32
2.37
0.34
-1.86
-4.27
-6.87
-9.55
-12.21
-14.70
-16.95
-19.00
-21.06
-23.42
-26.31
-29.79
-33.57
-37.10
-39.66
-40.55
-39.31
-35.82
-30.34
-23.40
-15.72
-8.01
-0.82
5.47
10.74
15.01
18.40
21.00
22.86
24.03
24.58
24.65
24.36
23.80
22.99
21.92
20.61
19.22
17.98
17.13
16.80
16.95
17.36
17.76
17.90
17.66
17.00
15.94
14.50
12.72
10.63
8.33
5.89
3.36
0.76
-1.95
-4.78
-7.69
-10.56
-13.26
-15.72
-18.00
-20.32
-22.91
-25.99
-29.65
-33.81
-38.27
-42.66
-46.48
-49.11
-49.90
-48.36
-44.31
-38.05
-30.23
-21.73
-13.43
-5.86
0.76
6.47
11.43
15.75
19.45
22.46
24.74
26.27
27.09
27.30
27.00
26.30
25.36
24.31
23.30
22.44
21.80
21.39
21.14
20.96
20.69
20.17
19.25
17.82
15.87
13.48
10.84
8.23
5.86
3.89
2.31
1.00
-0.28
-1.75
-3.52
-5.61
-7.97
-10.48
-13.11
-15.80
-18.53
-21.25
-23.90
-26.53
-29.27
-32.32
-35.79
-39.54
-43.11
-45.72
-46.53
-44.86
-40.48
-33.70
-25.29
-16.23
-7.50
0.22
6.57
11.58
15.47
18.57
21.15
23.34
25.12
26.35
26.92
26.79
26.05
24.90
23.57
22.29
21.17
20.29
19.66
19.31
19.26
19.48
19.87
20.20
20.24
19.76
18.68
17.04
15.02
12.87
10.80
8.99
7.45
6.08
4.62
2.81
0.47
-2.38
-5.52
-8.63
-11.40
-13.73
-15.74
-17.69
-19.91
-22.63
-25.95
-29.79
-33.95
-38.09
-41.74
-44.28
-45.13
-43.81
-40.19
-34.54
-27.48
-19.79
-12.17
-5.09
1.24
6.80
11.57
15.51
18.55
20.67
21.94
22.53
22.66
22.50
22.16
21.67
21.10
20.52
20.09
19.95
20.16
20.72
21.47
22.19
22.61
22.55
21.94
20.85
19.48
18.03
16.65
15.34
14.05
12.62
10.95
8.99
6.81
4.52
2.17
-0.23
-2.77
-5.56
-8.69
-12.09
-15.62
-19.06
-22.30
-25.31
-28.18
-31.10
-34.16
-37.38
-40.56
-43.39
-45.42
-46.16
-45.15
-42.11
-37.06
-30.36
-22.66
-14.71
-7.17
-0.43
5.43
10.54
15.08
19.07
22.37
24.78
26.19
26.66
26.43
25.76
24.90
23.95
22.97
22.04
21.30
20.90
20.92
21.28
21.75
22.00
21.81
21.06
19.77
18.06
16.06
13.92
11.73
9.57
7.48
5.50
3.59
1.74
-0.11
-2.02
-4.06
-6.31
-8.81
-11.45
-14.12
-16.58
-18.71
-20.50
-22.11
-23.86
-26.09
-29.05
-32.77
-37.00
-41.20
-44.67
-46.62
-46.45
-43.84
-38.87
-32.00
-24.00
-15.68
-7.74
-0.67
5.36
10.34
14.36
17.53
19.89
21.51
22.43
22.74
22.55
21.99
21.18
20.24
19.33
18.57
18.06
17.82
17.76
17.75
17.64
17.37
16.98
16.55
16.13
15.69
15.10
14.21
12.92
11.27
9.39
7.48
5.69
4.11
2.69
1.28
-0.30
-2.23
-4.61
-7.40
-10.40
-13.37
-16.11
-18.50
-20.62
-22.70
-25.06
-27.96
-31.48
-35.46
-39.44
-42.71
-44.47
-44.09
-41.24
-36.06
-29.13
-21.24
-13.20
-5.64
1.07
6.80
11.50
15.20
17.87
19.54
20.33
20.40
20.04
19.45
18.81
18.20
17.65
17.22
17.02
17.14
17.66
18.53
19.60
20.63
21.41
21.82
21.84
21.49
20.81
19.80
18.42
16.66
14.58
12.30
9.98
7.73
5.59
3.46
1.25
-1.13
-3.66
-6.21
-8.68
-11.01
-13.26
-15.57
-18.03
-20.66
-23.42
-26.29
-29.36
-32.75
-36.48
-40.25
-43.47
-45.28
-44.93
-42.00
-36.62
-29.43
-21.29
-13.12
-5.60
0.89
6.24
10.55
14.00
16.81
19.12
21.02
22.46
23.40
23.79
23.67
23.17
22.47
21.73
21.08
20.59
20.29
20.17
20.20
20.34
20.49
20.48
20.15
19.41
18.24
16.76
15.11
13.42
11.73
9.99
8.12
6.10
3.94
1.72
-0.51
-2.74
-5.04
-7.44
-9.96
-12.59
-15.25
-17.92
-20.58
-23.29
-26.17
-29.40
-33.17
-37.60
-42.52
-47.40
-51.35
-53.33
-52.55
-48.73
-42.27
-34.02
-25.05
-16.22
-8.07
-0.79
5.57
11.03
15.57
19.18
21.97
24.06
25.64
26.82
27.64
28.04
27.99
27.57
26.96
26.38
26.04
26.00
26.15
26.29
26.14
25.57
24.54
23.11
21.40
19.53
17.60
15.68
13.88
12.23
10.74
9.28
7.70
5.83
3.56
0.92
-1.96
-4.89
-7.68
-10.26
-12.62
-14.83
-17.00
-19.24
-21.70
-24.50
-27.80
-31.62
-35.86
-40.24
-44.29
-47.42
-49.06
-48.71
-46.11
-41.32
-34.71
-26.96
-18.89
-11.20
-4.37
1.44
6.32
10.43
13.82
16.48
18.29
19.23
19.40
19.00
18.27
17.38
16.49
15.72
15.22
15.14
15.58
16.51
17.75
19.06
20.18
20.90
21.10
20.69
19.74
18.34
16.67
14.93
13.25
11.65
10.02
8.20
6.05
3.48
0.56
-2.55
-5.67
-8.65
-11.38
-13.85
-16.06
-18.09
-20.07
-22.19
-24.72
-27.93
-31.88
-36.31
-40.56
-43.64
-44.55
-42.63
-37.80
-30.65
-22.17
-13.41
-5.20
1.99
8.09
13.15
17.31
20.66
23.30
25.27
26.64
27.43
27.65
27.35
26.64
25.67
24.65
23.75
23.04
22.53
22.21
22.08
22.19
22.56
23.08
23.53
23.54
22.79
21.12
18.63
15.64
12.53
9.58
6.89
4.39
1.90
-0.68
-3.39
-6.10
-8.71
-11.13
-13.34
-15.38
-17.35
-19.41
-21.74
-24.55
-28.00
-32.04
-36.39
-40.53
-43.81
-45.58
-45.37
-42.97
-38.44
-32.15
-24.63
-16.55
-8.60
-1.32
4.94
10.09
14.18
17.40
19.89
21.75
23.07
23.92
24.46
24.82
25.11
25.32
25.43
25.42
25.30
25.18
25.17
25.31
25.53
25.64
25.41
24.71
23.52
21.97
20.26
18.55
16.87
15.11
13.18
11.03
8.69
6.27
3.87
1.52
-0.81
-3.15
-5.53
-7.91
-10.33
-12.85
-15.57
-18.60
-21.97
-25.70
-29.77
-34.13
-38.62
-42.94
-46.52
-48.64
-48.66
-46.24
-41.48
-34.88
-27.21
-19.15
-11.28
-3.92
2.79
8.80
14.08
18.64
22.43
25.37
27.45
28.63
29.02
28.80
28.21
27.46
26.77
26.22
25.80
25.49
25.16
24.75
24.16
23.40
22.52
21.56
20.48
19.23
17.69
15.83
13.73
11.53
9.38
7.42
5.64
3.99
2.39
0.70
-1.14
-3.24
-5.64
-8.33
-11.23
-14.22
-17.20
-20.15
-23.18
-26.49
-30.25
-34.50
-39.02
-43.34
-46.76
-48.47
-47.79
-44.36
-38.31
-30.25
-21.14
-11.99
-3.63
3.50
9.35
14.09
17.95
21.06
23.46
25.16
26.20
26.68
26.74
26.49
25.92
25.04
23.88
22.60
21.47
20.79
20.67
21.01
21.40
21.40
20.64
19.06
16.87
14.44
12.10
9.97
7.98
5.95
3.75
1.35
-1.23
-3.95
-6.79
-9.75
-12.75
-15.72
-18.57
-21.35
-24.18
-27.27
-30.76
-34.60
-38.52
-42.04
-44.59
-45.51
-44.27
-40.54
-34.35
-26.19
-16.89
-7.49
1.14
8.44
14.27
18.75
22.14
24.66
26.50
27.75
28.52
28.89
28.94
28.74
28.35
27.88
27.49
27.32
27.40
27.64
27.88
27.92
27.63
26.95
25.93
24.64
23.16
21.48
19.52
17.21
14.52
11.53
8.43
5.50
2.96
0.93
-0.70
-2.17
-3.75
-5.61
-7.83
-10.33
-13.03
-15.85
-18.76
-21.75
-24.84
-28.10
-31.61
-35.44
-39.47
-43.29
-46.22
-47.42
-46.19
-42.20
-35.71
-27.45
-18.36
-9.36
-1.08
6.18
12.40
17.60
21.82
25.04
27.22
28.42
28.79
28.58
28.05
27.41
26.76
26.11
25.47
24.86
24.30
23.77
23.20
22.45
21.43
20.09
18.51
16.82
15.13
13.49
11.87
10.19
8.40
6.47
4.39
2.21
-0.04
-2.31
-4.56
-6.80
-9.04
-11.25
-13.45
-15.61
-17.76
-19.96
-22.36
-25.10
-28.34
-32.11
-36.35
-40.74
-44.76
-47.76
-48.99
-47.83
-44.00
-37.72
-29.62
-20.66
-11.81
-3.82
2.91
8.36
12.73
16.32
19.34
21.89
23.94
25.35
26.07
26.11
25.59
24.71
23.68
22.64
21.70
20.95
20.46
20.29
20.36
20.47
20.31
19.60
18.20
16.22
13.95
11.71
9.72
8.05
6.58
5.09
3.34
1.14
-1.64
-4.97
-8.68
-12.45
-15.97
-19.07
-21.81
-24.55
-27.71
-31.60
-36.16
-40.97
-45.23
-48.07
-48.76
-46.87
-42.43
-35.84
-27.78
-19.04
-10.37
-2.36
4.63
10.48
15.24
19.09
22.21
24.70
26.58
27.80
28.34
28.27
27.80
27.18
26.60
26.12
25.62
25.01
24.25
23.42
22.69
22.14
21.72
21.23
20.44
19.19
17.43
15.25
12.81
10.26
7.70
5.19
2.70
0.14
-2.60
-5.59
-8.84
-12.24
-15.63
-18.85
-21.83
-24.57
-27.21
-29.94
-32.94
-36.30
-39.99
-43.73
-47.04
-49.34
-50.02
-48.66
-45.13
-39.65
-32.70
-24.91
-16.91
-9.17
-2.00
4.45
10.16
15.04
19.02
22.02
24.06
25.24
25.83
26.12
26.33
26.53
26.69
26.73
26.64
26.47
26.35
26.39
26.61
26.92
27.20
27.25
26.90
26.03
24.61
22.62
20.21
17.50
14.70
11.92
9.21
6.57
3.91
1.19
-1.65
-4.61
-7.63
-10.63
-13.52
-16.25
-18.83
-21.40
-24.21
-27.48
-31.33
-35.62
-40.01
-43.91
-46.68
-47.78
-46.88
-43.93
-39.18
-33.03
-25.97
-18.51
-11.08
-4.02
2.44
8.20
13.20
17.45
20.98
23.78
25.87
27.27
28.09
28.45
28.49
28.36
28.16
27.93
27.74
27.65
27.73
27.94
28.21
28.34
28.09
27.26
25.77
23.71
21.25
18.65
16.06
13.54
11.02
8.35
5.39
2.05
-1.66
-5.63
-9.64
-13.44
-16.76
-19.49
-21.77
-23.90
-26.29
-29.25
-32.86
-36.85
-40.68
-43.60
-44.92
-44.11
-40.96
-35.62
-28.57
-20.48
-12.15
-4.21
2.89
8.95
13.94
17.86
20.70
22.48
23.26
23.19
22.50
21.47
20.32
19.18
18.15
17.25
16.58
16.24
16.27
16.65
17.20
17.68
17.84
17.55
16.77
15.60
14.15
12.44
10.48
8.23
5.65
2.78
-0.30
-3.55
-6.95
-10.46
-14.01
-17.45
-20.64
-23.56
-26.40
-29.51
-33.25
-37.71
-42.57
-47.09
-50.28
-51.25
-49.45
-44.86
-37.95
-29.51
-20.38
-11.30
-2.84
4.67
11.07
16.37
20.72
24.31
27.29
29.72
31.55
32.66
33.00
32.65
31.83
30.79
29.75
28.79
27.90
27.03
26.14
25.25
24.37
23.44
22.32
20.88
19.03
16.77
14.28
11.77
9.43
7.33
5.41
3.47
1.30
-1.28
-4.35
-7.82
-11.54
-15.31
-18.98
-22.50
-25.90
-29.37
-33.07
-37.14
-41.57
-46.17
-50.46
-53.80
-55.46
-54.77
-51.41
-45.42
-37.31
-27.87
-18.00
-8.52
-0.03
7.15
12.98
17.58
21.17
23.94
26.06
27.59
28.58
29.04
29.04
28.71
28.19
27.61
27.08
26.67
26.42
26.33
26.32
26.22
25.83
24.91
23.36
21.14
18.40
15.30
12.03
8.73
5.51
2.38
-0.70
-3.78
-6.90
-10.03
-13.06
-15.85
-18.28
-20.38
-22.31
-24.33
-26.81
-29.97
-33.88
-38.34
-42.89
-46.83
-49.40
-49.89
-47.85
-43.20
-36.27
-27.73
-18.41
-9.13
-0.50
7.11
13.59
19.00
23.46
27.04
29.75
31.53
32.43
32.55
32.18
31.67
31.34
31.39
31.84
32.58
33.43
34.21
34.72
34.79
34.25
33.01
31.04
28.44
25.39
22.09
18.67
15.14
11.38
7.27
2.78
-1.99
-6.78
-11.24
-15.13
-18.37
-21.17
-23.92
-27.07
-30.95
-35.58
-40.64
-45.49
-49.34
-51.40
-51.09
-48.12
-42.59
-34.92
-25.84
-16.19
-6.77
1.75
9.01
14.84
19.22
22.25
24.06
24.81
24.72
24.07
23.13
22.20
21.45
20.93
20.61
20.40
20.24
20.09
19.93
19.71
19.33
18.66
17.54
15.88
13.66
11.02
8.09
5.01
1.81
-1.50
-4.91
-8.39
-11.88
-15.28
-18.56
-21.81
-25.21
-29.02
-33.46
-38.62
-44.31
-50.03
-54.97
-58.20
-58.87
-56.49
-51.08
-43.16
-33.59
-23.34
-13.27
-3.99
4.12
10.96
16.60
21.20
24.96
28.01
30.38
31.99
32.74
32.59
31.65
30.14
28.36
26.60
25.11
24.01
23.41
23.25
23.41
23.65
23.65
23.11
21.79
19.62
16.67
13.22
9.56
5.96
2.54
-0.68
-3.83
-7.04
-10.33
-13.64
-16.78
-19.57
-21.99
-24.18
-26.49
-29.29
-32.89
-37.29
-42.17
-46.88
-50.57
-52.37
-51.63
-48.06
-41.84
-33.53
-24.00
-14.13
-4.68
3.89
11.39
17.85
23.34
27.96
31.67
34.45
36.26
37.12
37.08
36.25
34.82
33.01
31.10
29.41
28.14
27.39
27.10
27.08
27.10
26.97
26.56
25.73
24.41
22.57
20.26
17.64
14.97
12.49
10.28
8.21
6.00
3.36
0.17
-3.46
-7.19
-10.68
-13.73
-16.40
-18.99
-21.86
-25.32
-29.52
-34.39
-39.64
-44.77
-49.12
-51.95
-52.56
-50.48
-45.60
-38.31
-29.36
-19.69
-10.18
-1.45
6.20
12.74
18.24
22.76
26.31
28.88
30.48
31.19
31.21
30.77
30.07
29.26
28.39
27.42
26.32
25.09
23.85
22.77
22.07
21.83
21.96
22.14
21.93
20.91
18.95
16.25
13.21
10.32
7.86
5.81
3.89
1.72
-0.96
-4.19
-7.76
-11.35
-14.70
-17.66
-20.30
-22.80
-25.39
-28.26
-31.52
-35.12
-38.87
-42.37
-45.05
-46.23
-45.27
-41.77
-35.73
-27.58
-18.09
-8.19
1.24
9.59
16.57
22.19
26.65
30.12
32.71
34.43
35.24
35.14
34.26
32.84
31.13
29.42
27.88
26.58
25.54
24.70
23.98
23.26
22.39
21.18
19.55
17.43
14.77
11.54
7.70
3.22
-1.79
-7.06
-12.23
-16.87
-20.70
-23.67
-25.93
-27.73
-29.37
-31.07
-33.06
-35.50
-38.46
-41.88
-45.39
-48.33
-49.86
-49.18
-45.80
-39.67
-31.29
-21.47
-11.19
-1.29
7.62
15.20
21.36
26.12
29.60
31.96
33.43
34.20
34.41
34.09
33.21
31.73
29.73
27.37
24.93
22.65
20.69
19.07
17.70
16.47
15.27
14.03
12.69
11.20
9.55
7.83
6.24
5.00
4.28
4.12
4.35
4.63
4.52
3.59
1.58
-1.55
-5.62
-10.25
-15.00
-19.46
-23.42
-26.89
-30.17
-33.68
-37.88
-42.98
-48.83
-54.81
-59.88
-62.82
-62.58
-58.70
-51.45
-41.80
-31.04
-20.39
-10.67
-2.20
5.07
11.27
16.50
20.75
24.04
26.48
28.24
29.53
30.48
31.15
31.63
32.05
32.70
33.88
35.79
38.41
41.39
44.17
46.09
46.55
45.26
42.27
37.97
32.90
27.60
22.45
17.60
13.02
8.65
4.40
0.23
-3.90
-7.98
-11.97
-15.82
-19.43
-22.78
-26.02
-29.44
-33.38
-37.97
-43.00
-47.81
-51.45
-52.95
-51.58
-47.14
-39.95
-30.73
-20.34
-9.66
0.62
9.91
17.75
23.84
28.07
30.52
31.50
31.40
30.57
29.24
27.46
25.25
22.69
20.00
17.54
15.64
14.47
13.98
13.90
13.85
13.48
12.56
10.99
8.87
6.43
3.92
1.61
-0.35
-1.95
-3.32
-4.61
-5.95
-7.33
-8.65
-9.80
-10.71
-11.41
-12.02
-12.77
-13.93
-15.82
-18.71
-22.65
-27.36
-32.13
-35.96
-37.78
-36.91
-33.19
-27.16
-19.81
-12.21
-5.23
0.72
5.57
9.51
12.75
15.36
17.25
18.28
18.33
17.48
16.05
14.45
13.10
12.31
12.16
12.56
13.26
14.03
14.72
15.27
15.63
15.78
15.65
15.14
14.12
12.54
10.35
7.59
4.34
0.74
-3.05
-6.82
-10.47
-13.89
-17.10
-20.17
-23.26
-26.50
-30.00
-33.72
-37.39
-40.55
-42.56
-42.85
-41.02
-37.05
-31.27
-24.28
-16.80
-9.56
-3.21
1.79
5.24
7.22
8.15
8.63
9.27
10.43
12.07
13.81
15.12
15.60
15.22
14.30
13.33
12.78
12.89
13.63
14.75
16.00
17.19
18.20
19.05
19.70
20.06
19.99
19.31
17.90
15.72
12.85
9.48
5.87
2.31
-0.98
-3.89
-6.43
-8.75
-11.05
-13.54
-16.43
-19.91
-24.04
-28.67
-33.32
-37.14
-39.17
-38.57
-35.04
-28.93
-21.15
-12.86
-5.06
1.67
7.20
11.62
15.15
17.92
20.00
21.38
22.08
22.13
21.64
20.76
19.68
18.66
17.87
17.41
17.22
17.16
17.08
16.94
16.77
16.68
16.74
16.84
16.77
16.24
15.08
13.35
11.35
9.55
8.33
7.84
7.85
7.83
7.15
5.33
2.26
-1.79
-6.22
-10.26
-13.30
-14.99
-15.32
-14.47
-12.68
-9.95
-5.94
-0.07
8.12
18.60
30.46
42.09
51.55
57.48
59.63
59.07
57.79
57.87
60.60
66.17
73.92
82.67
90.92
96.89
98.77
95.50
87.73
78.42
72.17
73.61
85.13
105.21
128.66
148.44
158.75
157.33
146.07
129.35
111.37
93.90
75.59
53.08
23.15
-15.39
-60.63
-107.94
-151.62
-186.88
-211.53
-226.00
-232.55
-233.57
-230.26
-222.18
-208.12
-187.36
-160.81
-131.20
-102.25
-76.92
-56.51
-40.31
-26.42
-13.38
-0.96
9.53
16.29
18.17
15.64
10.72
6.19
4.35
6.07
10.51
15.79
19.91
21.78
21.59
20.37
19.33
19.01
19.09
18.68
16.91
13.51
8.94
4.12
-0.14
-3.56
-6.44
-9.57
-13.62
-18.89
-25.17
-31.78
-38.13
-43.76
-48.60
-52.81
-56.62
-60.10
-63.02
-64.90
-65.09
-63.02
-58.51
-51.79
-43.58
-34.61
-25.50
-16.67
-8.21
-0.39
6.42
11.75
15.31
17.26
18.20
18.96
20.10
21.74
23.56
24.95
25.59
25.49
24.98
24.60
24.58
24.96
25.41
25.61
25.38
24.78
24.04
23.30
22.55
21.49
19.71
16.93
13.09
8.62
4.21
0.40
-2.52
-4.87
-7.26
-10.32
-14.22
-18.45
-21.90
-23.20
-21.33
-15.91
-7.42
2.98
13.98
24.43
33.68
41.62
48.42
54.37
59.67
64.48
68.86
72.88
76.59
79.99
83.12
86.07
89.01
92.22
95.96
100.45
105.66
111.20
116.32
119.92
120.92
118.63
113.14
105.44
97.22
90.40
86.55
86.50
90.15
96.55
104.09
110.65
113.91
111.70
102.51
85.96
63.08
36.09
7.92
-18.45
-40.41
-56.00
-63.93
-63.65
-55.60
-41.32
-23.53
-5.65
8.94
17.75
19.79
15.67
7.17
-3.51
-14.46
-24.58
-33.63
-42.08
-50.63
-59.90
-70.16
-81.25
-92.53
-103.07
-111.74
-117.47
-119.60
-118.07
-113.55
-107.31
-100.77
-95.18
-91.27
-89.24
-88.95
-90.12
-92.54
-96.03
-100.43
-105.42
-110.52
-115.18
-118.92
-121.47
-122.92
-123.72
-124.35
-125.17
-126.03
-126.25
-124.68
-120.10
-111.70
-99.37
-83.81
-66.25
-48.17
-31.02
-16.03
-4.13
4.11
8.54
9.57
8.10
5.42
2.76
0.89
-0.11
-0.93
-2.59
-6.01
-11.45
-18.42
-25.88
-32.67
-37.87
-41.07
-42.38
-42.31
-41.67
-41.43
-42.59
-45.96
-51.89
-59.95
-69.05
-77.58
-84.00
-87.31
-87.26
-84.28
-79.13
-72.59
-65.16
-57.23
-49.16
-41.53
-35.02
-30.10
-26.72
-24.09
-20.81
-15.34
-6.64
5.45
19.98
35.07
48.51
58.27
63.03
62.45
57.22
48.76
38.85
29.17
20.91
14.64
10.40
7.93
6.89
7.01
8.00
9.56
11.27
12.68
13.47
13.53
13.02
12.24
11.51
10.93
10.41
9.66
8.37
6.35
3.67
0.55
-2.63
-5.55
-8.03
-10.12
-12.03
-14.15
-16.90
-20.65
-25.56
-31.48
-37.81
-43.67
-47.96
-49.67
-48.19
-43.39
-35.69
-25.86
-14.90
-3.82
6.53
15.47
22.62
27.89
31.48
33.80
35.25
36.14
36.52
36.24
35.16
33.32
30.95
28.50
26.36
24.78
23.71
22.99
22.36
21.68
20.92
20.15
19.47
18.93
18.45
18.03
17.64
17.24
16.77
16.08
14.94
13.17
10.66
7.42
3.61
-0.62
-5.21
-10.24
-15.81
-21.95
-28.36
-34.35
-38.93
-41.00
-39.72
-34.83
-26.65
-16.12
-4.47
7.10
17.70
26.80
34.19
39.83
43.72
45.89
46.49
45.76
44.12
41.99
39.80
37.82
36.21
34.98
34.10
33.49
33.07
32.78
32.52
32.23
31.79
31.07
29.94
28.31
26.17
23.60
20.72
17.63
14.34
10.78
6.82
2.44
-2.27
-7.09
-11.73
-16.00
-19.92
-23.75
-27.96
-33.03
-39.16
-46.14
-53.15
-58.99
-62.32
-62.08
-57.86
-49.97
-39.34
-27.21
-14.77
-2.95
7.68
16.84
24.40
30.33
34.60
37.30
38.57
38.67
37.87
36.45
34.62
32.59
30.52
28.56
26.85
25.41
24.21
23.16
22.13
21.04
19.81
18.36
16.58
14.34
11.57
8.32
4.77
1.14
-2.35
-5.65
-8.79
-11.87
-15.03
-18.40
-22.16
-26.47
-31.43
-36.88
-42.33
-46.93
-49.62
-49.47
-45.94
-39.03
-29.32
-17.82
-5.69
5.97
16.34
24.94
31.61
36.43
39.59
41.37
42.02
41.82
41.02
39.93
38.85
38.03
37.69
37.86
38.40
39.06
39.54
39.68
39.45
38.92
38.17
37.21
35.91
34.12
31.75
28.85
25.58
22.11
18.52
14.77
10.75
6.41
1.76
-3.19
-8.47
-14.27
-20.77
-28.02
-35.69
-43.02
-48.89
-52.16
-51.99
-48.14
-41.00
-31.43
-20.54
-9.42
1.02
10.10
17.41
22.74
26.13
27.74
27.85
26.81
24.98
22.75
20.47
18.48
17.00
16.13
15.78
15.74
15.75
15.61
15.28
14.86
14.51
14.29
14.15
13.82
12.97
11.35
8.86
5.65
1.95
-1.99
-6.01
-10.09
-14.27
-18.67
-23.39
-28.58
-34.36
-40.76
-47.56
-54.19
-59.76
-63.19
-63.51
-60.14
-53.11
-43.09
-31.17
-18.65
-6.67
3.96
12.84
19.89
25.17
28.71
30.52
30.66
29.39
27.23
24.83
22.78
21.41
20.70
20.35
20.09
19.80
19.60
19.77
20.46
21.60
22.80
23.54
23.36
22.01
19.53
16.16
12.25
8.14
4.10
0.32
-3.20
-6.61
-10.26
-14.59
-19.90
-26.19
-33.00
-39.40
-44.19
-46.24
-44.82
-39.83
-31.80
-21.72
-10.74
0.04
9.85
18.17
24.76
29.50
32.43
33.63
33.33
31.86
29.69
27.31
25.13
23.44
22.31
21.66
21.32
21.12
20.97
20.84
20.72
20.55
20.16
19.32
17.79
15.47
12.41
8.85
5.14
1.58
-1.66
-4.61
-7.51
-10.75
-14.71
-19.62
-25.45
-31.72
-37.54
-41.76
-43.29
-41.47
-36.23
-28.15
-18.30
-7.82
2.28
11.32
18.91
24.84
29.03
31.42
32.04
31.03
28.69
25.47
21.90
18.49
15.63
