1551116053.00
64.000000
-0.00
-0.00
-0.00
-0.00
-0.00
-0.00
-0.00
-0.00
-0.00
-0.00
0.00
0.01
0.01
-0.00
-0.03
-0.05
-0.05
0.00
0.13
0.36
0.66
1.01
1.37
1.72
2.06
2.40
2.79
3.24
3.80
4.42
5.06
5.66
6.20
6.68
7.15
7.68
8.31
9.14
10.09
11.04
11.88
12.56
13.14
13.76
14.65
15.96
17.91
20.32
22.90
25.38
27.58
29.57
31.68
34.32
37.81
42.54
48.15
54.10
59.83
64.97
69.58
74.14
79.34
85.71
93.76
103.00
112.62
121.73
129.77
136.75
143.30
150.75
157.77
166.64
177.95
191.79
206.97
220.57
228.25
225.36
208.53
176.87
132.76
80.05
23.07
-34.95
-92.44
-149.16
-205.23
-260.36
-313.73
-363.85
-409.79
-450.85
-486.41
-515.62
-537.07
-549.01
-549.70
-538.05
-513.83
-478.24
-433.38
-381.88
-326.38
-269.13
-211.85
-155.79
-102.00
-51.34
-4.77
36.81
72.77
102.82
127.10
146.13
160.62
171.26
178.69
183.31
185.39
185.18
182.94
179.02
173.84
167.80
161.24
154.43
147.49
140.51
133.52
126.56
119.70
113.02
106.58
100.43
94.61
89.13
84.01
79.24
74.85
70.83
67.21
64.00
61.19
58.79
56.76
55.09
53.70
52.51
51.40
50.22
48.80
46.96
44.54
41.41
37.50
32.80
27.33
21.22
14.67
7.91
1.21
-5.17
-10.97
-15.98
-20.05
-23.12
-25.14
-26.17
-26.32
-25.70
-24.48
-22.79
-20.77
-18.54
-16.17
-13.72
-11.24
-8.74
-6.23
-3.72
-1.19
1.38
4.03
6.76
9.63
12.58
15.61
18.70
21.85
25.07
28.37
31.78
35.33
39.10
43.00
46.99
51.08
55.26
59.55
63.98
68.61
73.49
78.71
84.14
89.69
95.31
100.97
106.65
112.35
118.07
123.83
129.67
135.32
140.55
145.15
148.88
151.46
152.54
151.64
148.07
143.12
137.26
130.82
123.98
116.94
109.80
102.70
95.74
89.05
82.80
76.82
71.05
65.47
60.06
54.85
49.87
45.18
40.84
36.97
33.43
30.15
27.10
24.27
21.64
19.21
17.01
15.05
13.37
11.88
10.51
9.20
7.94
6.71
5.53
4.41
3.37
2.44
1.56
0.70
-0.16
-1.01
-1.83
-2.59
-3.25
-3.81
-4.30
-4.77
-5.30
-5.95
-6.72
-7.60
-8.53
-9.45
-10.35
-11.25
-12.20
-13.27
-14.52
-15.92
-17.39
-18.80
-20.07
-21.17
-22.25
-23.51
-25.23
-27.57
-30.54
-33.94
-37.44
-40.78
-43.85
-46.86
-50.24
-54.48
-59.93
-66.60
-74.14
-81.95
-89.51
-96.60
-103.51
-110.90
-119.57
-130.09
-142.48
-156.28
-170.65
-184.82
-198.39
-211.47
-224.66
-238.93
-255.45
-275.45
-299.64
-327.62
-357.27
-384.64
-404.75
-413.09
-407.17
-387.50
-357.34
-321.37
-284.05
-248.34
-215.49
-185.62
-158.54
-134.33
-113.21
-95.25
-79.99
-66.51
-53.84
-41.40
-29.18
-17.72
-7.66
0.61
7.19
12.62
17.59
22.68
28.07
33.56
38.63
42.67
45.29
46.39
46.19
45.15
43.76
42.39
41.21
40.20
39.23
38.10
36.61
34.64
32.15
29.21
26.02
22.79
19.67
16.71
13.84
10.95
8.02
5.10
2.24
-0.57
-3.51
-6.92
-11.17
-16.43
-22.57
-28.98
-34.73
-38.72
-39.94
-37.85
-32.49
-24.50
-14.91
-4.78
5.04
14.07
22.08
29.04
34.93
39.80
43.74
46.92
49.47
51.51
52.95
53.68
53.64
52.92
51.82
50.66
49.73
49.12
48.76
48.46
48.04
47.35
46.28
44.78
42.90
40.76
38.53
36.37
34.32
32.34
30.31
28.13
25.81
23.47
21.23
19.16
17.20
15.21
13.02
10.47
7.48
4.02
0.12
-4.12
-8.53
-12.93
-17.16
-21.25
-25.45
-30.14
-35.67
-42.11
-49.05
-55.64
-60.74
-63.32
-62.77
-59.09
-52.85
-45.03
-36.69
-28.80
-22.01
-16.63
-12.74
-10.15
-8.68
-8.14
-8.43
-9.50
-11.31
-13.77
-16.76
-20.17
-23.97
-28.20
-32.92
-38.11
-43.67
-49.44
-55.33
-61.36
-67.61
-74.09
-80.53
-86.39
-90.82
-92.87
-91.63
-86.36
-76.64
-62.37
-43.81
-21.62
3.18
29.25
55.10
79.27
100.51
117.87
130.78
139.06
142.87
142.64
139.02
132.79
124.74
115.46
105.34
94.52
83.02
70.92
58.46
46.24
35.01
25.65
18.93
15.31
14.84
17.10
21.33
26.62
32.08
36.99
40.90
43.67
45.39
46.25
46.48
46.20
45.44
44.18
42.41
40.28
38.01
35.88
34.09
32.77
31.89
31.39
31.17
31.20
31.47
31.86
32.18
32.12
31.32
29.57
26.87
23.54
20.04
16.85
14.21
12.08
10.14
7.96
5.28
2.08
-1.46
-5.03
-8.40
-11.53
-14.53
-17.63
-21.08
-25.11
-29.79
-35.06
-40.58
-45.72
-49.65
-51.47
-50.51
-46.54
-39.89
-31.36
-21.97
-12.71
-4.30
2.90
8.80
13.52
17.21
20.04
22.17
23.76
24.94
25.81
26.41
26.79
26.97
27.04
27.12
27.36
27.80
28.39
29.04
29.58
29.93
30.01
29.78
29.17
28.07
26.36
24.03
21.19
18.11
15.13
12.49
10.24
8.21
6.10
3.61
0.61
-2.84
-6.54
-10.21
-13.64
-16.72
-19.44
-21.83
-23.97
-26.00
-28.16
-30.69
-33.73
-37.13
-40.30
-42.38
-42.45
-39.92
-34.77
-27.58
-19.34
-11.07
-3.49
3.13
8.82
13.81
18.29
22.31
25.81
28.67
30.77
32.03
32.44
32.09
31.19
29.99
28.77
27.77
27.09
26.74
26.63
26.64
26.66
26.56
26.21
25.47
24.22
22.46
20.29
17.97
15.77
13.87
12.28
10.85
9.35
7.60
5.58
3.39
1.22
-0.83
-2.77
-4.76
-7.00
-9.65
-12.78
-16.37
-20.41
-24.92
-29.97
-35.53
-41.36
-46.88
-51.20
-53.31
-52.37
-48.07
-40.77
-31.50
-21.57
-12.16
-4.01
2.72
8.20
12.79
16.70
19.93
22.43
24.12
25.11
25.64
25.99
26.38
26.89
27.48
28.05
28.53
28.90
29.19
29.45
29.72
29.99
30.15
30.04
29.46
28.25
26.32
23.78
20.82
17.69
14.62
11.70
8.94
6.20
3.38
0.41
-2.65
-5.70
-8.63
-11.37
-13.96
-16.50
-19.12
-21.99
-25.26
-29.05
-33.38
-38.10
-42.84
-47.04
-49.92
-50.74
-48.95
-44.44
-37.55
-29.01
-19.73
-10.57
-2.20
5.05
11.12
16.18
20.47
24.23
27.56
30.43
32.71
34.30
35.19
35.51
35.47
35.25
34.95
34.58
34.13
33.61
33.07
32.56
32.02
31.33
30.35
29.01
27.34
25.49
23.59
21.73
19.91
18.09
16.22
14.25
12.11
9.72
7.03
4.09
1.01
-2.01
-4.87
-7.55
-10.17
-12.90
-15.90
-19.26
-23.04
-27.25
-31.83
-36.47
-40.56
-43.29
-43.79
-41.50
-36.41
-29.07
-20.45
-11.60
-3.37
3.78
9.75
14.62
18.51
21.53
23.71
25.06
25.64
25.57
25.00
24.10
23.03
21.94
20.96
20.18
19.61
19.22
18.93
18.71
18.47
18.22
17.91
17.45
16.69
15.50
13.82
11.70
9.35
7.06
5.08
3.50
2.23
1.02
-0.41
-2.25
-4.57
-7.21
-9.94
-12.54
-14.91
-17.14
-19.40
-21.99
-25.12
-28.89
-33.19
-37.61
-41.54
-44.19
-44.78
-42.79
-38.07
-30.99
-22.34
-13.11
-4.22
3.64
10.14
15.26
19.11
21.84
23.58
24.44
24.54
24.05
23.23
22.31
21.46
20.76
20.21
19.77
19.44
19.22
19.15
19.20
19.26
19.18
18.84
18.13
17.05
15.62
13.92
12.05
10.09
8.17
6.34
4.59
2.86
1.09
-0.76
-2.61
-4.30
-5.71
-6.83
-7.82
-8.95
-10.55
-12.86
-15.98
-19.80
-24.04
-28.19
-31.49
-33.09
-32.18
-28.30
-21.51
-12.49
-2.36
7.67
16.63
24.02
29.76
34.06
37.12
39.04
39.74
39.13
37.18
34.10
30.22
26.00
21.86
18.12
14.95
12.43
10.64
9.61
9.44
10.07
11.30
12.79
14.04
14.63
14.28
12.95
10.82
8.21
5.39
2.53
-0.33
-3.28
-6.47
-10.06
-14.07
-18.39
-22.77
-26.96
-30.83
-34.36
-37.67
-40.91
-44.16
-47.50
-51.05
-55.00
-59.47
-64.32
-68.97
-72.36
-73.28
-70.80
-64.66
-55.48
-44.48
-33.13
-22.66
-13.71
-6.40
-0.42
4.67
9.22
13.37
17.03
20.08
22.42
24.08
25.20
25.95
26.46
26.78
26.89
26.78
26.44
25.88
25.14
24.20
23.07
21.75
20.31
18.83
17.41
16.07
14.83
13.69
12.62
11.56
10.46
9.24
7.84
6.20
4.28
2.07
-0.39
-3.01
-5.61
-8.01
-10.08
-11.82
-13.40
-15.13
-17.36
-20.41
-24.43
-29.38
-34.96
-40.53
-45.18
-47.88
-47.77
-44.43
-38.04
-29.35
-19.41
-9.27
0.23
8.60
15.67
21.45
26.02
29.48
31.95
33.52
34.25
34.24
33.59
32.45
31.01
29.47
28.02
26.81
25.91
25.36
25.06
24.87
24.55
23.90
22.82
21.34
19.62
17.81
16.01
14.20
12.30
10.17
7.81
5.26
2.61
-0.09
-2.85
-5.72
-8.74
-11.89
-15.10
-18.28
-21.40
-24.38
-27.21
-29.83
-32.29
-34.76
-37.49
-40.71
-44.39
-48.16
-51.26
-52.72
-51.71
-47.79
-41.05
-32.17
-22.17
-12.16
-3.07
4.53
10.51
15.05
18.46
21.05
23.01
24.39
25.21
25.50
25.37
24.94
24.35
23.69
23.05
22.52
22.14
21.94
21.91
21.96
22.00
21.91
21.59
20.95
19.86
18.27
16.12
13.44
10.35
7.03
3.63
0.30
-2.90
-5.98
-9.05
-12.22
-15.57
-19.09
-22.64
-25.98
-28.87
-31.20
-32.98
-34.42
-35.73
-37.16
-38.87
-40.96
-43.48
-46.34
-49.24
-51.53
-52.35
-50.78
-46.25
-38.74
-28.93
-18.00
-7.24
2.30
10.09
16.09
20.62
24.09
26.80
28.93
30.47
31.38
31.68
31.45
30.89
30.23
29.62
29.16
28.82
28.56
28.30
28.04
27.82
27.66
27.55
27.39
27.02
26.38
25.40
24.14
22.67
21.04
19.25
17.26
15.07
12.72
10.28
7.85
5.38
2.75
-0.21
-3.63
-7.47
-11.55
-15.58
-19.29
-22.52
-25.33
-27.99
-30.89
-34.46
-38.98
-44.43
-50.30
-55.56
-58.95
-59.21
-55.63
-48.31
-38.11
-26.47
-14.89
-4.54
3.97
10.49
15.24
18.48
20.49
21.45
21.59
21.09
20.19
19.16
18.23
17.61
17.40
17.59
18.09
18.78
19.59
20.51
21.55
22.66
23.66
24.22
24.03
22.93
21.04
18.71
16.38
14.40
12.85
11.61
10.41
8.93
7.00
4.48
1.36
-2.23
-6.05
-9.80
-13.17
-16.03
-18.49
-20.93
-23.89
-27.83
-32.99
-39.22
-45.99
-52.39
-57.28
-59.50
-58.18
-53.00
-44.41
-33.49
-21.68
-10.36
-0.52
7.46
13.61
18.23
21.61
24.01
25.66
26.75
27.47
27.94
28.17
28.10
27.68
27.00
26.22
25.62
25.36
25.50
25.96
26.60
27.27
27.89
28.34
28.48
28.08
26.85
24.59
21.31
17.32
13.07
9.12
5.90
3.54
1.89
0.54
-0.99
-3.10
-6.02
-9.71
-13.93
-18.32
-22.47
-26.17
-29.37
-32.30
-35.34
-38.89
-43.23
-48.38
-53.99
-59.30
-63.25
-64.72
-62.76
-57.03
-47.87
-36.25
-23.53
-11.09
-0.01
9.12
16.10
21.07
24.30
26.11
26.80
26.67
25.95
24.86
23.60
22.33
21.20
20.30
19.63
19.13
18.73
18.45
18.31
18.40
18.67
18.97
19.03
18.58
17.45
15.68
13.47
11.11
8.86
6.86
5.09
3.44
1.77
-0.02
-1.99
-4.16
-6.51
-9.07
-11.88
-14.96
-18.32
-21.79
-25.10
-27.96
-30.17
-31.75
-33.03
-34.52
-36.75
-39.99
-44.11
-48.49
-52.17
-54.08
-53.37
-49.69
-43.17
-34.47
-24.49
-14.17
-4.32
4.48
11.90
17.85
22.37
25.72
28.17
30.04
31.55
32.73
33.48
33.74
33.45
32.78
32.00
31.35
30.98
30.86
30.86
30.82
30.68
30.44
30.09
29.59
28.80
27.58
25.83
23.49
20.62
17.36
13.90
10.42
7.18
4.31
1.85
-0.32
-2.48
-4.91
-7.76
-11.03
-14.51
-17.96
-21.18
-24.11
-26.82
-29.53
-32.48
-35.92
-39.99
-44.65
-49.49
-53.83
-56.71
-57.20
-54.61
-48.77
-40.07
-29.41
-17.96
-6.86
2.95
10.97
17.08
21.51
24.60
26.74
28.18
29.01
29.30
29.08
28.49
27.73
26.94
26.23
25.57
24.93
24.28
23.71
23.37
23.37
23.74
24.28
24.69
24.56
23.59
21.76
19.27
16.47
13.73
11.20
8.85
6.54
4.09
1.49
-1.21
-3.90
-6.61
-9.40
-12.38
-15.60
-18.94
-22.23
-25.29
-28.09
-30.81
-33.74
-37.21
-41.43
-46.32
-51.45
-56.02
-59.07
-59.69
-57.28
-51.76
-43.56
-33.51
-22.57
-11.66
-1.52
7.34
14.63
20.27
24.36
27.15
29.00
30.24
31.10
31.64
31.85
31.74
31.40
30.93
30.48
30.12
29.86
29.69
29.63
29.67
29.78
29.81
29.52
28.71
27.27
25.29
23.01
20.67
18.41
16.19
13.85
11.23
8.30
5.16
1.98
-1.12
-4.09
-6.99
-9.86
-12.68
-15.28
-17.49
-19.19
-20.44
-21.53
-22.87
-24.91
-28.00
-32.33
-37.74
-43.71
-49.31
-53.40
-54.95
-53.27
-48.34
-40.72
-31.39
-21.40
-11.68
-2.82
4.87
11.28
16.48
20.55
23.66
25.98
27.65
28.77
29.44
29.75
29.82
29.77
29.69
29.62
29.61
29.64
29.73
29.89
30.11
30.30
30.23
29.62
28.18
25.75
22.40
18.42
14.26
10.28
6.61
3.12
-0.48
-4.45
-8.84
-13.38
-17.63
-21.17
-23.83
-25.76
-27.39
-29.27
-31.86
-35.44
-39.95
-45.00
-49.89
-53.69
-55.43
-54.33
-50.05
-42.79
-33.33
-22.77
-12.28
-2.78
5.24
11.75
16.97
21.23
24.73
27.50
29.45
30.42
30.38
29.44
27.86
26.02
24.27
22.91
22.11
21.91
22.21
22.87
23.72
24.60
25.34
25.80
25.79
25.20
24.00
22.31
20.38
18.47
16.70
14.99
13.12
10.82
7.95
4.53
0.69
-3.41
-7.60
-11.77
-15.80
-19.64
-23.26
-26.76
-30.35
-34.34
-38.98
-44.30
-49.97
-55.18
-58.86
-59.93
-57.64
-51.87
-43.22
-32.72
-21.55
-10.63
-0.46
8.80
17.22
24.83
31.64
37.57
42.58
46.66
49.84
52.16
53.66
54.33
54.29
53.63
52.52
51.12
49.55
47.84
46.02
44.04
41.91
39.63
37.16
34.47
31.40
27.80
23.54
18.68
13.46
8.23
3.31
-1.12
-5.10
-8.91
-12.84
-17.13
-21.82
-26.69
-31.38
-35.51
-38.80
-41.24
-43.04
-44.63
-46.52
-49.24
-53.15
-58.38
-64.51
-70.57
-75.06
-76.32
-73.04
-64.80
-52.31
-37.25
-21.71
-7.49
4.31
13.44
20.26
25.28
28.92
31.46
33.08
34.06
34.74
35.35
35.94
36.31
36.13
35.27
33.85
32.30
31.14
30.68
30.88
31.39
31.79
31.71
31.03
29.79
28.06
25.82
22.99
19.50
15.46
11.18
7.07
3.51
0.66
-1.64
-3.77
-6.17
-9.11
-12.57
-16.28
-19.85
-22.98
-25.59
-27.84
-30.06
-32.70
-36.18
-40.86
-46.83
-53.75
-60.73
-66.35
-68.97
-67.30
-60.82
-50.06
-36.50
-22.02
-8.39
3.18
12.25
18.94
23.72
27.09
29.46
31.10
32.20
32.92
33.34
33.48
33.33
32.81
31.86
30.58
29.17
27.93
27.13
26.85
26.97
27.15
27.04
26.42
25.18
23.44
21.34
19.00
16.47
13.71
10.72
7.52
4.25
1.04
-1.97
-4.78
-7.46
-10.16
-13.03
-16.08
-19.22
-22.29
-25.10
-27.65
-30.15
-32.99
-36.71
-41.69
-47.93
-54.83
-61.19
-65.49
-66.32
-62.89
-55.30
-44.51
-32.00
-19.30
-7.58
2.51
10.77
17.26
22.14
25.64
28.01
29.53
30.43
30.86
30.86
30.41
29.51
28.22
26.75
25.31
24.20
23.64
23.73
24.42
25.44
26.34
26.65
26.00
24.28
21.66
18.60
15.51
12.63
9.98
7.32
4.38
1.01
-2.72
-6.57
-10.22
-13.46
-16.25
-18.81
-21.52
-24.85
-29.18
-34.65
-40.95
-47.28
-52.48
-55.23
-54.50
-49.86
-41.66
-30.90
-18.95
-7.11
3.65
12.89
20.56
26.76
31.61
35.13
37.33
38.23
37.95
36.73
34.84
32.59
30.23
27.96
25.89
24.02
22.33
20.75
19.30
18.02
16.95
15.99
14.91
13.39
11.20
8.33
5.05
1.77
-1.18
-3.72
-6.07
-8.56
-11.51
-14.98
-18.77
-22.55
-26.01
-29.05
-31.87
-34.90
-38.75
-43.89
-50.41
-57.85
-65.06
-70.46
-72.48
-70.05
-62.98
-52.05
-38.72
-24.66
-11.32
0.42
10.24
18.22
24.63
29.74
33.69
36.59
38.52
39.60
40.01
40.00
39.73
39.32
38.76
38.01
37.12
36.25
35.63
35.45
35.76
36.34
36.83
36.81
35.97
34.21
31.62
28.38
24.77
20.97
17.16
13.45
9.85
6.27
2.54
-1.52
-5.96
-10.64
-15.21
-19.31
-22.78
-25.71
-28.49
-31.62
-35.53
-40.53
-46.64
-53.58
-60.64
-66.71
-70.45
-70.67
-66.73
-58.84
-48.03
-35.82
-23.65
-12.52
-2.84
5.39
12.35
18.15
22.90
26.71
29.74
32.21
34.29
36.05
37.45
38.34
38.68
38.53
38.12
37.77
37.74
38.10
38.69
39.18
39.20
38.56
37.20
35.29
33.04
30.64
28.15
25.53
22.65
19.39
15.77
11.91
8.08
4.53
1.38
-1.46
-4.27
-7.34
-10.86
-14.80
-18.92
-22.97
-26.80
-30.43
-34.06
-37.96
-42.43
-47.70
-53.92
-60.91
-68.01
-73.99
-77.37
-76.77
-71.50
-61.86
-49.12
-35.04
-21.31
-9.12
1.07
9.34
16.03
21.44
25.77
29.06
31.37
32.79
33.46
33.61
33.41
33.05
32.65
32.30
32.06
32.01
32.18
32.60
33.27
34.09
34.87
35.36
35.28
34.44
32.76
30.31
27.24
23.78
20.07
16.20
12.23
8.28
4.46
0.91
-2.35
-5.45
-8.60
-12.06
-15.92
-20.03
-24.12
-27.90
-31.26
-34.33
-37.49
-41.21
-45.95
-51.90
-58.83
-65.97
-72.13
-75.88
-76.00
-71.86
-63.64
-52.28
-39.16
-25.71
-13.08
-1.91
7.55
15.34
21.64
26.59
30.39
33.16
35.06
36.19
36.66
36.53
35.89
34.82
33.53
32.27
31.36
31.08
31.57
32.76
34.35
35.91
37.04
37.39
36.84
35.39
33.15
30.29
26.94
23.22
19.30
15.39
11.67
8.28
5.23
2.32
-0.78
-4.36
-8.54
-13.18
-17.92
-22.27
-25.88
-28.67
-30.91
-33.12
-35.95
-39.88
-45.10
-51.26
-57.50
-62.59
-65.24
-64.43
-59.74
-51.45
-40.47
-28.05
-15.48
-3.75
6.51
15.04
21.87
27.14
31.09
33.91
35.83
37.04
37.68
37.86
37.70
37.32
36.91
36.64
36.56
36.60
36.59
36.36
35.86
35.17
34.52
34.02
33.68
33.26
32.47
31.11
29.16
26.78
24.24
21.73
19.31
16.90
14.36
11.51
8.18
4.24
-0.30
-5.36
-10.73
-16.10
-21.09
-25.43
-29.03
-32.07
-35.01
-38.50
-43.14
-49.24
-56.54
-64.15
-70.68
-74.57
-74.58
-70.18
-61.69
-50.15
-37.07
-23.89
-11.78
-1.36
7.25
14.25
19.93
24.56
28.27
31.07
33.00
34.09
34.51
34.45
34.18
33.93
33.92
34.26
34.99
35.99
37.09
38.07
38.74
38.95
38.62
37.69
36.18
34.22
32.00
29.74
27.61
25.63
23.62
21.39
18.82
15.96
12.93
9.86
6.69
3.26
-0.61
-4.98
-9.72
-14.55
-19.16
-23.32
-26.98
-30.34
-33.82
-37.98
-43.35
-50.16
-58.07
-66.02
-72.40
-75.49
-74.03
-67.70
-57.20
-44.04
-29.97
-16.52
-4.67
5.18
13.08
19.26
24.03
27.71
30.60
32.92
34.79
36.11
36.73
36.46
35.34
33.62
31.77
30.29
29.58
29.74
30.61
31.78
32.81
33.33
33.08
32.06
30.38
28.24
25.82
23.22
20.49
17.60
14.51
11.24
7.91
4.60
1.41
-1.66
-4.73
-7.93
-11.36
-15.02
-18.86
-22.77
-26.68
-30.54
-34.32
-37.98
-41.56
-45.25
-49.36
-54.24
-60.01
-66.25
-71.94
-75.63
-75.87
-71.78
-63.39
-51.68
-38.22
-24.73
-12.47
-2.12
6.25
12.96
18.41
22.92
26.64
29.57
31.62
32.76
33.03
32.58
31.65
30.49
29.28
28.16
27.25
26.62
26.35
26.49
27.02
27.76
28.40
28.64
28.21
26.97
25.02
22.52
19.74
16.87
14.09
11.46
8.97
6.47
3.80
0.83
-2.43
-5.86
-9.21
-12.29
-14.98
-17.37
-19.68
-22.25
-25.46
-29.62
-34.86
-41.03
-47.51
-53.32
-57.29
-58.30
-55.70
-49.52
-40.45
-29.61
-18.20
-7.25
2.56
10.87
17.52
22.50
25.84
27.71
28.34
28.06
27.24
26.21
25.21
24.45
23.99
23.88
24.14
24.72
25.55
26.53
27.50
28.21
28.40
27.84
26.44
24.22
21.38
18.16
14.77
11.37
7.98
4.53
0.93
-2.93
-7.10
-11.58
-16.22
-20.80
-25.07
-28.87
-32.25
-35.46
-38.96
-43.27
-48.80
-55.61
-63.28
-70.87
-77.02
-80.31
-79.66
-74.67
-65.69
-53.76
-40.21
-26.46
-13.56
-2.22
7.25
14.88
20.95
25.85
29.94
33.43
36.33
38.51
39.85
40.37
40.20
39.58
38.71
37.78
36.96
36.44
36.44
37.06
38.18
39.45
40.42
40.70
40.12
38.73
36.72
34.28
31.55
28.60
25.54
22.49
19.56
16.79
14.03
11.00
7.45
3.28
-1.46
-6.51
-11.59
-16.59
-21.51
-26.55
-31.97
-38.04
-44.88
-52.39
-60.12
-67.22
-72.54
-74.88
-73.37
-67.71
-58.40
-46.55
-33.58
-20.81
-9.20
0.73
8.87
15.37
20.47
24.43
27.52
29.98
31.95
33.57
34.85
35.80
36.39
36.56
36.37
35.93
35.47
35.20
35.28
35.68
36.21
36.59
36.54
35.89
34.61
32.78
30.51
27.91
25.12
22.32
19.68
17.28
15.05
12.73
9.98
6.53
2.30
-2.51
-7.57
-12.53
-17.19
-21.56
-25.86
-30.41
-35.57
-41.64
-48.72
-56.59
-64.51
-71.37
-75.86
-76.87
-73.88
-67.11
-57.44
-46.04
-34.06
-22.33
-11.41
-1.61
6.85
13.90
19.55
23.94
27.30
29.77
31.46
32.38
32.55
32.15
31.40
30.57
29.86
29.32
28.90
28.57
28.33
28.25
28.32
28.44
28.39
27.90
26.77
24.95
22.57
19.88
17.17
14.58
12.09
9.57
6.78
3.55
-0.17
-4.24
-8.43
-12.40
-15.93
-18.91
-21.54
-24.19
-27.43
-31.77
-37.47
-44.35
-51.73
-58.53
-63.48
-65.45
-63.77
-58.39
-49.86
-39.16
-27.42
-15.67
-4.69
5.05
13.31
19.96
25.04
28.64
30.98
32.34
33.01
33.14
32.78
31.99
30.83
29.58
28.56
28.06
28.17
28.73
29.39
29.80
29.70
28.98
27.67
25.80
23.39
20.43
16.99
13.18
9.18
5.17
1.24
-2.61
-6.48
-10.47
-14.65
-18.96
-23.28
-27.52
-31.74
-36.21
-41.33
-47.39
-54.29
-61.30
-67.16
-70.44
-69.97
-65.29
-56.81
-45.65
-33.21
-20.87
-9.57
0.21
8.41
15.21
20.86
25.56
29.40
32.44
34.78
36.51
37.77
38.67
39.22
39.41
39.20
38.68
38.08
37.66
37.60
37.91
38.37
38.58
38.15
36.87
34.71
31.88
28.67
25.36
22.11
18.91
15.65
12.09
8.07
3.47
-1.60
-6.91
-12.10
-16.83
-20.95
-24.57
-27.98
-31.61
-35.89
-41.08
-47.18
-53.86
-60.38
-65.74
-68.80
-68.64
-64.82
-57.56
-47.67
-36.23
-24.38
-12.97
-2.53
6.69
14.59
21.16
26.43
30.45
33.36
35.29
36.38
36.77
36.60
36.01
35.19
34.31
33.51
32.88
32.46
32.29
32.35
32.60
32.89
32.96
32.52
31.34
29.35
26.67
23.57
20.31
17.04
13.77
10.36
6.62
2.43
-2.20
-7.14
-12.17
-17.11
-21.79
-26.17
-30.27
-34.22
-38.22
-42.55
-47.45
-53.02
-59.08
-65.10
-70.20
-73.41
-73.81
-70.91
-64.67
-55.58
-44.47
-32.37
-20.27
-9.04
0.76
8.87
15.34
20.39
24.31
27.37
29.72
31.43
32.54
33.07
33.04
32.45
31.40
30.06
28.70
27.64
27.13
27.24
27.78
28.39
28.62
28.12
26.75
24.53
21.68
18.51
15.33
12.38
9.74
7.30
4.83
2.09
-1.04
-4.51
-8.12
-11.63
-14.90
-17.96
-20.96
-24.19
-27.89
-32.27
-37.43
-43.28
-49.32
-54.73
-58.39
-59.21
-56.54
-50.39
-41.39
-30.66
-19.41
-8.66
0.90
8.95
15.47
20.64
24.77
28.10
30.80
32.86
34.19
34.72
34.54
33.92
33.25
32.81
32.77
33.06
33.53
34.01
34.38
34.54
34.40
33.76
32.44
30.34
27.51
24.20
20.74
17.37
14.19
11.10
7.94
4.59
1.08
-2.47
-5.92
-9.29
-12.74
-16.66
-21.45
-27.36
-34.30
-41.75
-48.80
-54.26
-56.95
-56.02
-51.22
-42.99
-32.30
-20.44
-8.65
2.20
11.68
19.72
26.48
32.14
36.81
40.52
43.30
45.20
46.26
46.57
46.21
45.29
43.98
42.52
41.21
40.27
39.82
39.79
39.94
40.01
39.75
39.04
37.81
35.96
33.36
29.92
25.68
20.81
15.71
10.77
6.22
2.05
-1.95
-6.01
-10.23
-14.49
-18.55
-22.21
-25.46
-28.54
-31.82
-35.75
-40.71
-46.89
-54.17
-62.00
-69.38
-75.06
-77.79
-76.76
-71.84
-63.64
-53.17
-41.61
-29.90
-18.69
-8.31
0.99
9.10
15.89
21.33
25.51
28.59
30.72
32.03
32.59
32.44
31.72
30.61
29.40
28.36
27.69
27.48
27.67
28.13
28.71
29.28
29.76
30.09
30.10
29.61
28.43
26.47
23.80
20.61
17.23
13.87
10.63
7.41
4.04
0.36
-3.67
-7.91
-12.18
-16.30
-20.21
-24.00
-27.82
-31.89
-36.41
-41.54
-47.27
-53.39
-59.35
-64.34
-67.36
-67.60
-64.63
-58.55
-49.99
-39.88
-29.18
-18.72
-9.08
-0.62
6.53
12.40
17.17
21.10
24.37
27.03
29.04
30.33
30.92
31.02
30.91
30.91
31.18
31.73
32.44
33.17
33.77
34.12
34.16
33.86
33.27
32.49
31.64
30.76
29.82
28.74
27.44
25.97
24.40
22.80
21.08
19.04
16.43
13.15
9.31
5.24
1.27
-2.42
-5.87
-9.31
-13.00
-17.17
-21.85
-26.84
-31.74
-35.95
-38.72
-39.31
-37.16
-32.14
-24.58
-15.30
-5.44
3.93
11.97
18.29
22.89
25.99
27.86
28.66
28.42
27.15
24.91
21.92
18.54
15.17
12.21
9.97
8.61
8.20
8.72
10.04
11.98
14.21
16.33
17.91
18.60
18.23
16.83
14.62
11.93
9.08
6.37
3.96
1.93
0.17
-1.51
-3.40
-5.73
-8.53
-11.64
-14.73
-17.49
-19.79
-21.84
-24.09
-27.07
-31.05
-35.83
-40.67
-44.37
-45.71
-43.73
-38.09
-29.12
-17.67
-4.83
8.44
21.45
33.84
45.38
55.88
65.10
72.75
78.60
82.54
84.56
84.79
83.43
80.70
76.87
72.20
66.90
61.12
54.83
47.98
40.48
32.43
24.12
16.03
8.63
2.25
-3.07
-7.55
-11.50
-15.20
-18.76
-22.21
-25.50
-28.66
-31.77
-34.97
-38.31
-41.78
-45.27
-48.65
-51.80
-54.62
-57.10
-59.26
-61.22
-63.28
-65.89
-69.56
-74.57
-80.69
-86.98
-91.97
-93.99
-91.81
-84.94
-73.90
-59.96
-44.74
-29.71
-15.95
-4.06
5.81
13.75
19.99
24.82
28.55
31.47
33.83
35.72
37.15
38.03
38.32
38.08
37.49
36.84
36.41
36.38
36.84
37.73
38.93
40.19
41.14
41.35
40.37
37.94
34.09
29.15
23.63
18.05
12.76
7.87
3.35
-0.90
-5.03
-9.13
-13.31
-17.68
-22.32
-27.23
-32.36
-37.64
-43.08
-48.84
-55.24
-62.60
-71.13
-80.70
-90.69
-99.95
-106.90
-109.91
-107.76
-100.09
-87.60
-71.86
-54.84
-38.42
-23.88
-11.85
-2.32
4.97
10.42
14.40
17.26
19.32
20.83
21.94
22.67
22.92
22.70
22.21
21.87
22.28
24.01
27.37
32.26
38.24
44.61
50.65
55.68
59.20
60.87
60.56
58.33
54.52
49.68
44.43
39.32
34.67
30.46
26.46
22.41
18.15
13.75
9.43
5.45
2.02
-0.88
-3.48
-6.17
-9.50
-13.92
-19.65
-26.46
-33.71
-40.37
-45.32
-47.64
-46.87
-43.17
-37.16
-29.78
-21.96
-14.46
-7.77
-2.18
2.20
5.39
7.50
8.72
9.25
9.33
9.18
9.00
8.98
9.29
10.03
11.25
12.84
14.63
16.43
18.08
19.47
20.60
21.41
21.89
22.03
21.88
21.53
21.05
20.36
19.28
17.54
14.98
11.64
7.78
3.79
-0.09
-3.83
-7.71
-12.11
-17.32
-23.47
-30.32
-37.38
-43.94
-49.19
-52.27
-52.49
-49.49
-43.36
-34.76
-24.74
-14.46
-4.92
3.20
9.71
14.72
18.53
21.45
23.67
25.25
26.17
26.40
25.94
24.92
23.51
21.93
20.36
18.91
17.57
16.28
14.94
13.51
11.99
10.38
8.73
7.02
5.16
3.03
0.51
-2.44
-5.77
-9.32
-12.92
-16.37
-19.60
-22.64
-25.62
-28.74
-32.23
-36.29
-40.97
-46.10
-51.23
-55.64
-58.39
-58.59
-55.66
-49.57
-40.91
-30.77
-20.40
-10.79
-2.50
4.43
10.25
15.25
19.53
23.09
25.81
27.67
28.68
28.92
28.46
27.38
25.76
23.83
21.94
20.48
19.70
19.61
19.95
20.32
20.34
19.78
18.61
16.94
14.90
12.58
9.95
6.92
3.44
-0.41
-4.52
-8.73
-12.98
-17.28
-21.73
-26.41
-31.38
-36.63
-42.02
-47.24
-51.78
-54.94
-55.95
-54.15
-49.25
-41.41
-31.26
-19.72
-7.77
3.79
14.33
23.44
30.82
36.25
39.65
41.15
41.04
39.81
37.95
35.81
33.51
30.95
27.88
24.09
19.56
14.53
9.52
5.15
1.86
-0.24
-1.45
-2.38
-3.63
-5.55
-8.10
-10.99
-13.79
-16.19
-18.05
-19.44
-20.54
-21.57
-22.80
-24.53
-26.91
-29.89
-33.02
-35.57
-36.65
-35.53
-31.90
-25.98
-18.37
-9.87
-1.24
6.95
14.33
20.69
25.92
29.96
32.81
34.50
35.18
35.04
34.36
33.41
32.39
31.38
30.31
28.99
27.26
25.03
22.44
19.80
17.41
15.46
13.90
12.41
10.61
8.16
4.96
1.16
-2.87
-6.74
-10.17
-13.09
-15.67
-18.23
-21.13
-24.65
-28.87
-33.56
-38.21
-42.13
-44.53
-44.78
-42.47
-37.56
-30.38
-21.57
-11.94
-2.32
6.59
14.27
20.48
25.15
28.33
30.16
30.75
30.27
28.91
26.94
24.68
22.41
20.34
18.59
17.20
16.17
15.50
15.20
15.32
15.84
16.61
17.40
17.93
17.86
17.02
15.38
13.05
10.25
7.21
4.11
0.98
-2.28
-5.86
-10.02
-14.95
-20.75
-27.37
-34.53
-41.68
-48.05
-52.74
-54.89
-53.95
-49.88
-43.21
-34.95
-26.31
-18.33
-11.68
-6.56
-2.84
-0.30
1.23
1.77
1.30
-0.13
-2.32
-4.95
-7.63
-10.04
-11.98
-13.35
-14.12
-14.31
-13.91
-12.88
-11.19
-8.84
-5.90
-2.57
0.76
3.57
5.35
5.76
4.84
3.00
0.83
-1.09
-2.53
-3.63
-4.87
-6.80
-9.77
-13.87
-18.83
-24.13
-29.09
-32.92
-34.85
-34.28
-30.93
-24.96
-16.98
-7.92
1.24
9.71
16.98
22.90
27.51
30.95
33.41
35.00
35.84
36.07
35.81
35.24
34.53
33.83
33.23
32.76
32.40
32.13
31.94
31.83
31.73
31.51
30.97
29.84
27.94
25.22
21.86
18.20
14.65
11.56
9.06
7.06
5.17
2.92
-0.14
-4.28
-9.41
-15.07
-20.43
-24.44
-26.14
-24.90
-20.57
-13.59
-4.79
4.81
14.26
22.84
30.16
36.03
40.48
43.65
45.68
46.70
46.78
45.92
44.11
41.49
38.43
35.45
33.08
31.60
30.94
30.70
30.36
29.55
28.16
26.31
24.26
22.09
19.74
16.96
13.52
9.32
4.44
-0.91
-6.52
-12.16
-17.70
-23.02
-28.01
-32.58
-36.75
-40.69
-44.75
-49.26
-54.34
-59.74
-64.72
-68.23
-69.24
-66.99
-61.34
-52.77
-42.30
-31.18
-20.63
-11.52
-4.27
1.17
5.12
7.96
9.99
11.31
11.89
11.76
11.06
10.11
9.27
8.78
8.74
9.08
9.71
10.60
11.83
13.49
15.54
17.73
19.65
20.80
20.84
19.68
17.51
14.68
11.56
8.42
5.31
2.17
-1.09
-4.45
-7.80
-10.87
-13.36
-15.04
-15.82
-15.82
-15.37
-15.04
-15.43
-17.02
-20.00
-24.11
-28.57
-32.23
-33.85
-32.45
-27.57
-19.42
-8.77
3.32
15.72
27.53
38.11
47.08
54.32
59.91
64.09
67.23
69.75
71.97
74.02
75.76
76.71
76.21
73.62
68.63
61.39
52.61
43.33
34.57
27.00
20.78
15.55
10.76
5.87
0.54
-5.26
-11.36
-17.43
-23.10
-28.04
-32.10
-35.26
-37.68
-39.64
-41.36
-42.99
-44.56
-46.09
-47.74
-49.74
-52.35
-55.66
-59.39
-62.90
-65.27
-65.62
-63.34
-58.30
-50.82
-41.54
-31.22
-20.56
-10.18
-0.63
7.61
14.21
19.03
22.18
23.99
24.87
25.15
25.03
24.52
23.64
22.44
21.03
19.57
18.20
16.98
15.94
15.09
14.43
13.90
13.36
12.58
11.37
9.61
7.38
4.88
2.29
-0.26
-2.83
-5.55
-8.53
-11.82
-15.35
-18.94
-22.44
-25.71
-28.72
-31.52
-34.35
-37.53
-41.34
-45.87
-50.81
-55.45
-58.79
-59.82
-57.89
-52.90
-45.31
-36.01
-26.03
-16.33
-7.59
-0.19
5.79
10.45
14.01
16.69
18.61
19.87
20.52
20.58
20.23
19.64
19.05
18.58
18.26
17.96
17.50
16.74
15.69
14.51
13.40
12.54
11.98
11.49
10.74
9.32
6.96
3.60
-0.47
-4.75
-8.62
-11.53
-13.28
-14.11
-14.66
-15.75
-18.00
-21.51
-25.79
-29.97
-33.28
-35.54
-37.34
-39.95
-44.72
-52.41
-62.80
-74.57
-85.78
-94.57
-99.86
-101.74
-101.38
-100.48
-100.47
-101.98
-104.67
-107.43
-108.99
-108.44
-105.56
-101.14
-97.31
-97.50
-105.92
-125.91
-157.93
-197.96
-237.79
-267.31
-278.24
-267.24
-236.94
-194.26
-146.94
-100.42
-56.40
-13.58
30.48
77.24
126.20
174.78
219.02
254.67
278.27
288.10
284.82
271.27
251.55
229.79
209.20
191.58
177.75
167.87
161.62
158.11
155.56
151.59
143.90
131.28
114.21
94.77
75.77
59.74
48.09
40.86
36.97
35.13
34.30
34.07
34.55
35.99
38.51
41.80
45.32
48.47
50.88
52.44
53.20
53.23
52.44
50.60
47.59
43.47
38.69
33.88
29.61
26.19
23.49
21.13
18.73
16.18
13.76
12.00
11.42
12.21
14.11
16.51
18.64
19.94
20.21
19.62
18.61
17.53
16.54
15.45
13.94
11.72
8.70
5.07
1.20
-2.43
-5.42
-7.58
-8.98
-9.91
-10.78
-11.99
-13.85
-16.43
-19.53
-22.70
-25.23
-26.28
-25.07
-21.04
-14.05
-4.42
7.09
19.42
31.37
41.82
49.88
55.02
57.17
56.60
53.82
49.51
44.34
38.96
33.94
29.66
26.29
23.75
21.76
20.02
18.29
16.55
14.94
13.60
12.49
11.36
9.78
7.40
4.11
0.16
-4.03
-8.09
-11.86
-15.51
-19.38
-23.77
-28.91
-34.84
-41.49
-48.72
-56.22
-63.56
-70.22
-75.79
-80.19
-83.81
-87.33
-91.52
-96.78
-102.93
-109.17
-114.38
-117.41
-117.55
-114.72
-109.46
-102.72
-95.58
-88.86
-83.03
-78.07
-73.67
-69.48
-65.31
-61.20
-57.44
-54.28
-51.79
-49.74
-47.63
-44.90
-41.16
-36.26
-30.28
-23.40
-15.76
-7.43
1.51
11.00
20.87
30.95
40.99
50.74
59.85
67.82
74.15
78.41
80.46
80.49
79.06
76.77
74.18
71.57
69.04
66.59
64.19
61.83
59.43
56.80
53.65
49.58
44.33
37.75
29.93
21.22
12.20
3.65
-3.58
-8.73
-11.30
-11.25
-8.98
-5.23
-0.80
3.61
7.54
10.77
13.20
14.78
15.53
15.54
14.93
13.84
12.39
10.65
8.73
6.79
5.06
3.80
3.17
3.22
3.87
4.95
6.33
7.81
9.19
10.25
10.78
10.72
10.14
9.29
8.43
7.80
7.44
7.24
7.00
6.52
5.60
4.16
2.15
-0.44
-3.52
-6.92
-10.44
-13.95
-17.45
-21.16
-25.33
-30.16
-35.56
-41.06
-45.85
-49.03
-49.82
-47.88
-43.33
-36.74
-28.98
-21.02
-13.74
-7.75
-3.29
-0.28
1.53
2.49
2.82
2.66
2.05
1.03
-0.38
-2.08
-4.04
-6.19
-8.46
-10.72
-12.72
-14.22
-14.98
-14.94
-14.15
-12.84
-11.37
-10.12
-9.45
-9.58
-10.42
-11.72
-13.03
-13.98
-14.39
-14.34
-14.06
-13.83
-13.68
-13.38
-12.42
-10.17
-6.21
-0.51
6.33
13.19
18.63
21.35
20.61
16.68
10.69
4.37
-0.58
-3.15
-3.28
-1.86
-0.30
0.03
-1.84
-6.31
-13.31
-22.34
-32.56
-42.74
-51.50
-57.70
-60.87
-61.42
-60.50
-59.33
-58.62
-58.24
-57.38
-55.12
-51.02
-45.32
-38.70
-31.77
-24.71
-17.27
-9.04
0.09
9.74
19.15
27.44
33.89
38.10
40.05
39.94
38.24
35.61
32.90
30.92
30.23
30.87
32.28
33.50
33.58
31.84
28.07
22.36
14.92
5.94
-4.38
-15.66
-27.14
-37.75
-46.36
-52.14
-54.83
-54.78
-52.80
-49.72
-46.13
-42.21
-37.84
-32.76
-26.82
-20.11
-12.97
-5.88
0.66
6.31
10.93
14.58
17.49
19.92
22.12
24.21
26.21
28.00
29.52
30.71
31.63
32.37
33.06
33.71
34.22
34.45
34.23
33.48
32.27
30.71
28.99
27.17
25.19
22.88
20.06
16.62
12.64
8.36
4.03
-0.13
-4.14
-8.18
-12.57
-17.54
-23.19
-29.36
-35.65
-41.50
-46.23
-49.16
-49.69
-47.43
-42.38
-34.98
-26.04
-16.59
-7.57
0.36
6.98
12.40
16.88
20.61
23.63
25.88
27.26
27.86
27.87
27.63
27.48
27.66
28.27
29.28
30.55
31.87
32.94
33.44
33.11
31.85
29.75
27.08
24.19
21.28
18.40
15.44
12.19
8.53
4.50
0.27
-3.92
-7.93
-11.77
-15.59
-19.67
-24.29
-29.62
-35.68
-42.26
-48.87
-54.76
-59.03
-60.82
-59.54
-55.07
-47.85
-38.67
-28.55
-18.40
-8.86
-0.31
7.13
13.46
18.68
22.88
26.09
28.44
30.05
31.06
31.61
31.84
31.89
31.88
31.93
32.09
32.39
32.81
33.26
33.61
33.67
33.29
32.33
30.79
28.72
26.20
23.32
20.14
16.71
13.14
9.54
6.00
2.60
-0.70
-3.95
-7.28
-10.78
-14.56
-18.80
-23.61
-29.05
-34.90
-40.61
-45.29
-47.91
-47.64
-44.08
-37.46
-28.55
-18.43
-8.25
1.11
9.10
15.52
20.39
23.82
25.95
26.92
26.91
26.20
25.12
24.06
23.28
22.93
22.99
23.35
23.94
24.66
25.43
26.12
26.56
26.53
25.88
24.47
22.25
19.21
15.40
10.99
6.26
1.61
-2.58
-5.98
-8.49
-10.20
-11.40
-12.50
-13.88
-15.91
-18.85
-22.90
-28.09
-34.20
-40.74
-46.85
-51.51
-53.72
-52.78
-48.59
-41.69
-33.02
-23.70
-14.65
-6.39
0.95
7.41
13.11
18.03
22.09
25.18
27.27
28.48
29.06
29.32
29.57
30.06
30.88
32.03
33.34
34.61
35.62
36.18
36.15
35.45
34.09
32.11
29.64
26.80
23.71
20.40
16.80
12.80
8.31
3.36
-1.88
-7.19
-12.34
-17.27
-22.09
-27.01
-32.26
-37.95
-43.95
-49.91
-55.26
-59.28
-61.22
-60.53
-56.94
-50.61
-42.16
-32.48
-22.56
-13.22
-4.96
2.08
8.03
13.12
17.57
21.44
24.68
27.14
28.71
29.38
29.33
28.89
28.44
28.26
28.43
28.80
29.09
29.02
28.48
27.56
26.48
25.45
24.49
23.45
22.06
20.10
17.49
14.36
10.94
7.44
4.01
0.69
-2.57
-5.86
-9.32
-13.12
-17.50
-22.57
-28.26
-34.20
-39.62
-43.61
-45.31
-44.23
-40.34
-34.12
-26.31
-17.78
-9.23
-1.20
6.03
12.34
